Data from HR4C21111__47__10-17-23-436.txt Node

Date: Mon Feb 22 10:17:23 IST 2021
User: Kapil
Spectrometer: HR4C2111
Trigger mode: 4
Integration Time (sec): 2.300000E0
Scans to average: 1
Electric dark correction enabled: true
Nonlinearity correction enabled: false
Boxcar width: 0
XAxis mode: Wavelengths
Number of Pixels in Spectrum: 3648
>>>>>Begin Spectral Data<<<<<
189.472	-460
189.745	-460
190.017	-460
190.289	-464
190.561	-296
190.834	-23
191.106	-118
191.378	22
191.65	8
191.923	-149
192.195	-111
192.467	125
192.739	114
193.011	-15
193.284	107
193.556	180
193.828	-28
194.1	-112
194.372	-110
194.644	43
194.916	43
195.188	-172
195.46	-90
195.732	42
196.004	-31
196.276	-126
196.548	-74
196.82	64
197.092	52
197.364	-133
197.636	-95
197.908	14
198.18	-52
198.452	-85
198.724	-40
198.996	58
199.268	82
199.54	-24
199.811	-120
200.083	87
200.355	9
200.627	-199
200.899	-57
201.171	69
201.442	-56
201.714	-188
201.986	-99
202.258	51
202.529	107
202.801	-1
203.073	59
203.345	178
203.616	14
203.888	-136
204.16	-154
204.431	62
204.703	-23
204.974	-142
205.246	2
205.518	173
205.789	-6
206.061	-133
206.332	-112
206.604	16
206.876	84
207.147	114
207.419	12
207.69	125
207.962	-39
208.233	-186
208.505	7
208.776	176
209.047	95
209.319	-132
209.59	-82
209.862	107
210.133	-33
210.404	-160
210.676	-125
210.947	74
211.219	53
211.49	-134
211.761	-56
212.033	35
212.304	-52
212.575	-195
212.846	-89
213.118	26
213.389	-66
213.66	-115
213.931	-44
214.203	33
214.474	-37
214.745	-124
215.016	141
215.287	435
215.559	58
215.83	-120
216.101	-71
216.372	-9
216.643	72
216.914	19
217.185	-68
217.456	155
217.727	-6
217.998	-170
218.269	-52
218.54	36
218.811	-21
219.082	-126
219.353	-87
219.624	-27
219.895	-34
220.166	-142
220.437	-121
220.708	86
220.979	-9
221.25	-148
221.521	-100
221.792	28
222.063	81
222.334	27
222.604	185
222.875	177
223.146	95
223.417	-162
223.688	-32
223.958	112
224.229	-58
224.5	-191
224.771	-79
225.041	76
225.312	52
225.583	-114
225.854	-71
226.124	88
226.395	-17
226.666	-141
226.936	-111
227.207	47
227.478	-49
227.748	-94
228.019	61
228.289	265
228.56	-37
228.831	-48
229.101	49
229.372	53
229.642	-25
229.913	-143
230.183	-132
230.454	-3
230.724	8
230.995	-94
231.265	-70
231.536	69
231.806	49
232.076	-107
232.347	-118
232.617	24
232.888	17
233.158	-66
233.428	-120
233.699	-17
233.969	-52
234.239	-159
234.51	-88
234.78	43
235.05	-16
235.321	-128
235.591	-78
235.861	65
236.131	-46
236.402	-198
236.672	-103
236.942	36
237.212	37
237.483	-76
237.753	-2
238.023	163
238.293	1
238.563	-92
238.833	-121
239.103	57
239.374	-30
239.644	-154
239.914	-42
240.184	121
240.454	-14
240.724	-171
240.994	-57
241.264	27
241.534	59
241.804	-21
242.074	-79
242.344	-39
242.614	-60
242.884	-183
243.154	-138
243.424	24
243.694	75
243.964	-93
244.234	-76
244.503	124
244.773	3
245.043	-226
245.313	-144
245.583	109
245.853	85
246.123	-174
246.392	-117
246.662	-1
246.932	-30
247.202	-184
247.471	-56
247.741	255
248.011	80
248.281	-157
248.55	-96
248.82	53
249.09	-7
249.359	-86
249.629	-79
249.899	42
250.168	48
250.438	-26
250.708	-123
250.977	64
251.247	49
251.516	-124
251.786	-56
252.055	121
252.325	11
252.595	-104
252.864	-64
253.134	36
253.403	-41
253.673	-168
253.942	-110
254.212	28
254.481	-13
254.75	-135
255.02	-86
255.289	83
255.559	-15
255.828	-124
256.097	-30
256.367	24
256.636	-73
256.906	-145
257.175	-17
257.444	261
257.714	71
257.983	-79
258.252	-22
258.521	8
258.791	42
259.06	-102
259.329	-50
259.598	57
259.868	-25
260.137	-140
260.406	-20
260.675	75
260.944	6
261.214	-139
261.483	-47
261.752	182
262.021	5
262.29	-164
262.559	-121
262.828	10
263.097	-44
263.366	-193
263.635	-85
263.905	142
264.174	11
264.443	-209
264.712	-121
264.981	25
265.25	-57
265.519	-145
265.788	-141
266.057	42
266.325	56
266.594	-49
266.863	-120
267.132	21
267.401	-2
267.67	-205
267.939	-147
268.208	39
268.477	78
268.745	-136
269.014	-116
269.283	122
269.552	37
269.821	-123
270.089	-23
270.358	3
270.627	-12
270.896	-135
271.164	-157
271.433	28
271.702	77
271.971	-157
272.239	-143
272.508	12
272.777	-33
273.045	-14
273.314	-28
273.583	99
273.851	-12
274.12	-153
274.388	-141
274.657	-9
274.926	-11
275.194	-162
275.463	-57
275.731	20
276	165
276.268	367
276.537	-84
276.805	20
277.074	32
277.342	-173
277.611	-94
277.879	105
278.148	21
278.416	-143
278.684	-115
278.953	-27
279.221	-49
279.49	-203
279.758	-97
280.026	-7
280.295	4
280.563	-110
280.831	713
281.1	1817
281.368	172
281.636	-109
281.904	-121
282.173	-15
282.441	-51
282.709	-93
282.977	33
283.246	37
283.514	-41
283.782	-78
284.05	17
284.318	52
284.587	-40
284.855	-145
285.123	-67
285.391	56
285.659	35
285.927	-152
286.195	-67
286.463	42
286.732	-28
287	-118
287.268	-56
287.536	22
287.804	-39
288.072	-141
288.34	-84
288.608	76
288.876	-27
289.144	-133
289.412	-19
289.68	34
289.948	-43
290.215	-118
290.483	-116
290.751	88
291.019	100
291.287	-167
291.555	-113
291.823	20
292.091	-26
292.358	-82
292.626	-27
292.894	80
293.162	63
293.43	-105
293.697	-91
293.965	39
294.233	-49
294.501	-196
294.768	-86
295.036	59
295.304	15
295.572	-151
295.839	-112
296.107	103
296.375	1
296.642	-132
296.91	-117
297.178	37
297.445	168
297.713	97
297.98	-90
298.248	-34
298.516	-46
298.783	-121
299.051	-119
299.318	12
299.586	-32
299.853	-105
300.121	-91
300.388	40
300.656	-17
300.923	-156
301.191	-39
301.458	52
301.726	-29
301.993	-156
302.26	-90
302.528	44
302.795	-8
303.063	-82
303.33	-54
303.597	34
303.865	21
304.132	-144
304.399	-155
304.667	-40
304.934	4
305.201	-125
305.469	-36
305.736	44
306.003	18
306.27	-71
306.538	-107
306.805	-25
307.072	-41
307.339	-99
307.606	-67
307.874	128
308.141	38
308.408	-155
308.675	-128
308.942	-57
309.209	-85
309.477	-141
309.744	-116
310.011	20
310.278	37
310.545	-32
310.812	-55
311.079	140
311.346	200
311.613	46
311.88	-39
312.147	-77
312.414	-43
312.681	-120
312.948	-27
313.215	124
313.482	75
313.749	-109
314.016	-206
314.283	-54
314.55	52
314.817	-123
315.083	-145
315.35	-94
315.617	-149
315.884	-155
316.151	50
316.418	142
316.684	-39
316.951	-196
317.218	-115
317.485	-13
317.752	-77
318.018	-130
318.285	-15
318.552	17
318.819	-63
319.085	-140
319.352	-45
319.619	33
319.885	-22
320.152	-189
320.419	-114
320.685	15
320.952	-39
321.219	-72
321.485	59
321.752	-1
322.019	-63
322.285	17
322.552	-17
322.818	122
323.085	-25
323.351	-155
323.618	-30
323.884	28
324.151	-91
324.417	-55
324.684	-87
324.95	-64
325.217	-165
325.483	-192
325.75	-45
326.016	-11
326.283	-38
326.549	-207
326.815	-98
327.082	98
327.348	18
327.615	-115
327.881	-38
328.147	101
328.414	114
328.68	3
328.946	-47
329.212	13
329.479	-11
329.745	-137
330.011	-128
330.278	2
330.544	-59
330.81	-51
331.076	-44
331.342	-44
331.609	-53
331.875	-102
332.141	-101
332.407	19
332.673	-15
332.94	-25
333.206	-56
333.472	36
333.738	57
334.004	-144
334.27	-43
334.536	-7
334.802	-53
335.068	-116
335.334	-1
335.6	1
335.866	-55
336.132	-177
336.398	-105
336.664	-37
336.93	-67
337.196	-101
337.462	-26
337.728	21
337.994	-53
338.26	-105
338.526	-52
338.792	-60
339.058	-68
339.324	-155
339.59	-22
339.856	41
340.121	-70
340.387	-129
340.653	82
340.919	138
341.185	36
341.45	-77
341.716	20
341.982	103
342.248	-75
342.514	-120
342.779	-19
343.045	12
343.311	-31
343.576	-102
343.842	-60
344.108	104
344.374	-5
344.639	-124
344.905	-102
345.171	33
345.436	-89
345.702	-125
345.967	29
346.233	56
346.499	-1
346.764	-194
347.03	-105
347.295	-56
347.561	-12
347.826	-63
348.092	-127
348.357	-32
348.623	-55
348.888	-129
349.154	-96
349.419	21
349.685	-16
349.95	-92
350.216	-69
350.481	31
350.747	-59
351.012	-195
351.277	-137
351.543	3
351.808	-55
352.074	-206
352.339	-152
352.604	12
352.87	-17
353.135	-137
353.4	-104
353.666	-47
353.931	-56
354.196	-175
354.461	-160
354.727	4
354.992	-45
355.257	-186
355.522	-67
355.788	-39
356.053	32
356.318	-120
356.583	-140
356.848	81
357.113	182
357.379	-102
357.644	-129
357.909	56
358.174	86
358.439	-175
358.704	-117
358.969	7
359.234	11
359.499	-176
359.765	-99
360.03	33
360.295	50
360.56	-135
360.825	-86
361.09	116
361.355	-69
361.62	-98
361.885	-69
362.15	-87
362.415	-64
362.679	-150
362.944	-3
363.209	23
363.474	36
363.739	-34
364.004	-126
364.269	-62
364.534	-16
364.799	-63
365.063	-76
365.328	27
365.593	10
365.858	-120
366.123	-125
366.387	16
366.652	-54
366.917	-174
367.182	-125
367.447	29
367.711	-9
367.976	-91
368.241	-25
368.505	32
368.77	-76
369.035	-80
369.299	-27
369.564	7
369.829	-78
370.093	-116
370.358	-139
370.623	-29
370.887	1
371.152	-153
371.416	-80
371.681	-40
371.946	-139
372.21	-173
372.475	-50
372.739	-15
373.004	-56
373.268	-107
373.533	-44
373.797	10
374.062	-13
374.326	-181
374.591	-96
374.855	-8
375.12	-63
375.384	-236
375.648	-157
375.913	-21
376.177	4
376.442	-116
376.706	-113
376.97	16
377.235	-37
377.499	-91
377.763	-95
378.028	-87
378.292	-46
378.556	-131
378.821	-194
379.085	-103
379.349	-177
379.614	-249
379.878	-119
380.142	53
380.406	-47
380.671	-48
380.935	73
381.199	169
381.463	44
381.727	-28
381.991	-79
382.256	-11
382.52	-70
382.784	-44
383.048	68
383.312	0
383.576	-43
383.84	-161
384.104	-110
384.369	-15
384.633	-132
384.897	-229
385.161	-102
385.425	15
385.689	-68
385.953	-135
386.217	-158
386.481	-67
386.745	-45
387.009	-88
387.273	-127
387.537	-88
387.801	-69
388.064	-122
388.328	-26
388.592	-4
388.856	-91
389.12	-144
389.384	-79
389.648	-48
389.912	30
390.176	32
390.439	127
390.703	-61
390.967	-96
391.231	-175
391.495	-134
391.758	-66
392.022	-45
392.286	-179
392.55	-159
392.813	-31
393.077	10
393.341	-61
393.605	-5
393.868	-54
394.132	-61
394.396	-87
394.659	31
394.923	-39
395.187	-93
395.45	-108
395.714	-75
395.978	-35
396.241	-32
396.505	-110
396.768	-52
397.032	9
397.295	0
397.559	-97
397.823	-128
398.086	5
398.35	-51
398.613	-168
398.877	-26
399.14	91
399.404	75
399.667	-36
399.931	-111
400.194	-1
400.457	-42
400.721	-87
400.984	9
401.248	-32
401.511	-56
401.775	-180
402.038	-143
402.301	64
402.565	18
402.828	-192
403.091	-122
403.355	-22
403.618	-13
403.881	-15
404.145	-64
404.408	-1
404.671	-55
404.934	-47
405.198	-3
405.461	-17
405.724	20
405.987	-14
406.251	14
406.514	89
406.777	-47
407.04	-140
407.303	-135
407.567	9
407.83	69
408.093	-145
408.356	-46
408.619	28
408.882	73
409.145	-18
409.408	-68
409.672	25
409.935	-34
410.198	-162
410.461	-68
410.724	89
410.987	-2
411.25	-144
411.513	-37
411.776	24
412.039	-87
412.302	-138
412.565	-115
412.828	-61
413.091	-67
413.354	-156
413.617	-117
413.879	-43
414.142	-41
414.405	-163
414.668	-92
414.931	24
415.194	5
415.457	-133
415.72	-54
415.983	-12
416.245	-30
416.508	-122
416.771	-154
417.034	4
417.297	-2
417.559	-50
417.822	-70
418.085	17
418.348	2
418.61	-158
418.873	-143
419.136	-89
419.399	-102
419.661	-93
419.924	-102
420.187	-13
420.449	-49
420.712	-121
420.975	-148
421.237	-46
421.5	-43
421.762	-27
422.025	8
422.288	53
422.55	-132
422.813	-196
423.075	-110
423.338	-50
423.601	-24
423.863	-66
424.126	-46
424.388	60
424.651	-16
424.913	-69
425.176	-79
425.438	-51
425.701	32
425.963	-111
426.225	-172
426.488	-63
426.75	-82
427.013	-145
427.275	-111
427.538	-73
427.8	-74
428.062	-145
428.325	-73
428.587	26
428.849	-17
429.112	-92
429.374	-133
429.636	-79
429.899	10
430.161	-116
430.423	-84
430.686	22
430.948	5
431.21	-131
431.472	-151
431.735	-75
431.997	-90
432.259	-49
432.521	-115
432.783	-14
433.046	-25
433.308	-146
433.57	-92
433.832	132
434.094	-62
434.356	-188
434.618	-111
434.881	-32
435.143	-80
435.405	-61
435.667	-38
435.929	-31
436.191	-64
436.453	-159
436.715	-82
436.977	-13
437.239	-48
437.501	-174
437.763	-130
438.025	-14
438.287	-34
438.549	-127
438.811	-84
439.073	-35
439.335	-97
439.597	-118
439.859	-53
440.121	60
440.383	-115
440.645	-118
440.907	-63
441.168	-23
441.43	-75
441.692	-177
441.954	-134
442.216	-60
442.478	-91
442.74	-185
443.001	-78
443.263	69
443.525	11
443.787	-129
444.048	-107
444.31	-70
444.572	-79
444.834	-107
445.095	-109
445.357	8
445.619	-32
445.881	-230
446.142	-131
446.404	-73
446.666	-61
446.927	-97
447.189	48
447.451	47
447.712	-21
447.974	-233
448.235	-183
448.497	-45
448.759	-126
449.02	-191
449.282	-183
449.543	-28
449.805	33
450.066	-198
450.328	-84
450.59	111
450.851	-30
451.113	-75
451.374	-147
451.636	-2
451.897	25
452.158	-64
452.42	31
452.681	70
452.943	-101
453.204	-204
453.466	-177
453.727	-107
453.988	-67
454.25	-160
454.511	-189
454.773	-74
455.034	67
455.295	-150
455.557	-155
455.818	-59
456.079	-36
456.341	40
456.602	7
456.863	15
457.124	-57
457.386	-188
457.647	-182
457.908	-80
458.169	32
458.431	-161
458.692	-170
458.953	-72
459.214	-110
459.476	-114
459.737	-25
459.998	19
460.259	-84
460.52	-181
460.781	-115
461.043	51
461.304	-79
461.565	-194
461.826	-138
462.087	-47
462.348	-21
462.609	-143
462.87	-77
463.131	-100
463.392	-31
463.653	-105
463.914	-79
464.175	-36
464.436	-92
464.697	-160
464.958	-137
465.219	-29
465.48	-46
465.741	-61
466.002	-121
466.263	-56
466.524	-69
466.785	-154
467.046	-121
467.307	-40
467.568	-120
467.829	-125
468.089	-69
468.35	-18
468.611	-99
468.872	-170
469.133	-57
469.394	19
469.655	64
469.915	-104
470.176	-184
470.437	-123
470.698	-56
470.958	-141
471.219	-189
471.48	-106
471.741	-103
472.001	-172
472.262	-124
472.523	17
472.784	37
473.044	-115
473.305	-78
473.566	17
473.826	-15
474.087	-134
474.348	-106
474.608	-40
474.869	-1
475.129	-111
475.39	-154
475.651	-67
475.911	-35
476.172	-183
476.432	-79
476.693	65
476.953	-36
477.214	-41
477.475	-28
477.735	-14
477.996	0
478.256	-188
478.517	-151
478.777	-60
479.038	11
479.298	-20
479.558	-105
479.819	59
480.079	65
480.34	-51
480.6	-144
480.861	-14
481.121	-57
481.381	-151
481.642	-69
481.902	-66
482.162	-126
482.423	-117
482.683	-29
482.943	2
483.204	-93
483.464	-114
483.724	-105
483.985	-44
484.245	-6
484.505	-96
484.765	-23
485.026	59
485.286	24
485.546	-66
485.806	-18
486.067	13
486.327	-99
486.587	-169
486.847	-147
487.107	-30
487.368	-27
487.628	-102
487.888	-98
488.148	-19
488.408	-98
488.668	-69
488.928	-32
489.188	-31
489.449	68
489.709	-97
489.969	-112
490.229	4
490.489	-36
490.749	-145
491.009	-201
491.269	-98
491.529	-87
491.789	-156
492.049	-56
492.309	60
492.569	-80
492.829	-114
493.089	-113
493.349	41
493.609	-61
493.869	-157
494.129	-80
494.389	43
494.648	-83
494.908	-168
495.168	-94
495.428	35
495.688	-40
495.948	-208
496.208	-181
496.467	-112
496.727	-73
496.987	-88
497.247	-100
497.507	-16
497.767	5
498.026	-160
498.286	-55
498.546	137
498.806	3
499.065	52
499.325	-26
499.585	-40
499.845	-55
500.104	-54
500.364	48
500.624	-8
500.883	-70
501.143	-57
501.403	10
501.662	98
501.922	-4
502.182	-148
502.441	-155
502.701	-83
502.96	39
503.22	-57
503.48	-103
503.739	-27
503.999	-67
504.258	-148
504.518	-77
504.777	26
505.037	-36
505.296	-125
505.556	-119
505.815	26
506.075	119
506.334	-3
506.594	-155
506.853	-104
507.113	-101
507.372	-235
507.632	-160
507.891	-53
508.151	-15
508.41	-169
508.669	-122
508.929	13
509.188	-49
509.447	-103
509.707	-118
509.966	-43
510.226	-30
510.485	-87
510.744	-78
511.004	5
511.263	-102
511.522	-168
511.781	-128
512.041	21
512.3	-59
512.559	-35
512.818	12
513.078	5
513.337	-19
513.596	-91
513.855	-105
514.115	18
514.374	-37
514.633	-145
514.892	-172
515.151	-28
515.41	17
515.67	-76
515.929	-137
516.188	-36
516.447	-68
516.706	-155
516.965	-103
517.224	-59
517.483	-75
517.743	-123
518.002	-88
518.261	3
518.52	-40
518.779	-140
519.038	-129
519.297	-71
519.556	-87
519.815	-175
520.074	-168
520.333	-56
520.592	-83
520.851	-158
521.11	-43
521.369	94
521.628	-82
521.887	-169
522.145	-92
522.404	-39
522.663	-45
522.922	-206
523.181	-194
523.44	-46
523.699	-26
523.958	-179
524.217	-157
524.475	-121
524.734	-173
524.993	-192
525.252	-100
525.511	-26
525.769	-97
526.028	-166
526.287	-96
526.546	-38
526.805	-61
527.063	-157
527.322	-167
527.581	-63
527.839	-63
528.098	-75
528.357	-51
528.616	-38
528.874	-82
529.133	-109
529.392	-79
529.65	-14
529.909	-45
530.168	-161
530.426	-124
530.685	11
530.943	-34
531.202	-158
531.461	-152
531.719	0
531.978	-58
532.236	-133
532.495	-66
532.753	-15
533.012	-102
533.271	-160
533.529	-170
533.788	-91
534.046	-164
534.305	-192
534.563	33
534.822	96
535.08	-33
535.338	-129
535.597	-90
535.855	-13
536.114	-63
536.372	-152
536.631	-89
536.889	20
537.147	-29
537.406	-225
537.664	-117
537.923	-59
538.181	-40
538.439	-168
538.698	-34
538.956	-42
539.214	-93
539.473	-142
539.731	-61
539.989	-8
540.248	-82
540.506	-156
540.764	-134
541.022	-23
541.281	7
541.539	-100
541.797	-158
542.055	-44
542.314	54
542.572	10
542.83	-139
543.088	-15
543.346	-56
543.604	-167
543.863	-83
544.121	53
544.379	-42
544.637	-148
544.895	-25
545.153	78
545.411	-59
545.67	-231
545.928	-181
546.186	-57
546.444	4
546.702	-88
546.96	-57
547.218	-7
547.476	-75
547.734	-150
547.992	-86
548.25	5
548.508	-84
548.766	-112
549.024	-104
549.282	-85
549.54	-77
549.798	-77
550.056	-98
550.314	10
550.572	-45
550.83	-200
551.088	-90
551.346	28
551.603	20
551.861	-145
552.119	-43
552.377	59
552.635	-57
552.893	-187
553.151	-173
553.409	-30
553.666	-23
553.924	-147
554.182	-158
554.44	2
554.698	60
554.955	-96
555.213	-91
555.471	8
555.729	-50
555.986	-229
556.244	-112
556.502	86
556.76	-57
557.017	-131
557.275	-65
557.533	71
557.79	14
558.048	-177
558.306	-93
558.563	6
558.821	-99
559.079	-146
559.336	-109
559.594	-38
559.852	-123
560.109	-187
560.367	-73
560.624	-26
560.882	-71
561.14	-95
561.397	20
561.655	-67
561.912	-32
562.17	-160
562.427	-95
562.685	-31
562.942	-39
563.2	-163
563.457	-75
563.715	-22
563.972	1
564.23	-186
564.487	-201
564.745	-62
565.002	-21
565.26	-129
565.517	-129
565.774	-55
566.032	-44
566.289	-111
566.547	-83
566.804	26
567.061	-23
567.319	-155
567.576	-73
567.833	62
568.091	116
568.348	-61
568.605	-31
568.863	-15
569.12	-23
569.377	-130
569.635	-130
569.892	-77
570.149	-101
570.406	-205
570.664	-153
570.921	-30
571.178	-112
571.435	-89
571.693	-88
571.95	-17
572.207	-77
572.464	-103
572.721	-23
572.979	77
573.236	12
573.493	-109
573.75	-89
574.007	38
574.264	-58
574.521	-116
574.779	-94
575.036	-23
575.293	-70
575.55	-144
575.807	-130
576.064	-33
576.321	-52
576.578	-202
576.835	-149
577.092	64
577.349	-14
577.606	-222
577.863	-152
578.12	-35
578.377	-42
578.634	-234
578.891	-153
579.148	-44
579.405	-115
579.662	-195
579.919	-111
580.176	-70
580.433	-40
580.69	-105
580.947	-98
581.204	-2
581.461	-55
581.717	-153
581.974	13
582.231	41
582.488	-63
582.745	-133
583.002	-134
583.259	1
583.515	-37
583.772	-195
584.029	-133
584.286	17
584.543	-153
584.799	-161
585.056	-87
585.313	-1
585.57	38
585.826	-109
586.083	-33
586.34	136
586.597	-46
586.853	-196
587.11	-172
587.367	14
587.623	75
587.88	-32
588.137	-104
588.393	0
588.65	-72
588.907	-179
589.163	-103
589.42	-37
589.677	-27
589.933	-133
590.19	-46
590.446	77
590.703	64
590.96	-181
591.216	-205
591.473	-69
591.729	-67
591.986	-82
592.242	-40
592.499	146
592.755	-3
593.012	-205
593.268	-102
593.525	-40
593.781	-27
594.038	-139
594.294	-97
594.551	-57
594.807	-130
595.064	-153
595.32	-142
595.576	-38
595.833	16
596.089	-91
596.346	-32
596.602	28
596.858	87
597.115	-99
597.371	-30
597.628	-24
597.884	-77
598.14	-146
598.397	-4
598.653	82
598.909	-38
599.166	-178
599.422	-116
599.678	-8
599.934	-38
600.191	-181
600.447	-128
600.703	-63
600.959	-78
601.216	-217
601.472	-172
601.728	-60
601.984	-91
602.241	-194
602.497	-109
602.753	26
603.009	-66
603.265	-171
603.521	-23
603.778	86
604.034	-114
604.29	-182
604.546	-126
604.802	-30
605.058	-97
605.314	-193
605.571	-124
605.827	-71
606.083	-70
606.339	-171
606.595	-63
606.851	28
607.107	53
607.363	-164
607.619	-124
607.875	73
608.131	11
608.387	-226
608.643	-145
608.899	-51
609.155	-67
609.411	-82
609.667	-61
609.923	-58
610.179	-88
610.435	-259
610.691	-175
610.947	-13
611.203	-89
611.459	-136
611.714	-37
611.97	91
612.226	23
612.482	-178
612.738	-77
612.994	129
613.25	-4
613.505	-162
613.761	-121
614.017	-40
614.273	-61
614.529	-121
614.785	-165
615.04	-47
615.296	-40
615.552	-117
615.808	-70
616.063	5
616.319	-26
616.575	-134
616.831	-96
617.086	104
617.342	69
617.598	-64
617.854	-16
618.109	56
618.365	-113
618.621	-169
618.876	-44
619.132	35
619.388	0
619.643	-167
619.899	-65
620.155	16
620.41	26
620.666	-123
620.921	-71
621.177	61
621.433	76
621.688	-44
621.944	-137
622.199	-52
622.455	-34
622.71	-134
622.966	-112
623.221	-104
623.477	-91
623.732	-66
623.988	-140
624.243	-22
624.499	-19
624.754	-202
625.01	-153
625.265	-46
625.521	55
625.776	-82
626.032	-51
626.287	-5
626.543	-59
626.798	-110
627.053	-63
627.309	-22
627.564	-89
627.82	-80
628.075	0
628.33	-36
628.586	-140
628.841	-246
629.096	-116
629.352	-15
629.607	-114
629.862	-145
630.118	-61
630.373	-79
630.628	-43
630.884	-148
631.139	-94
631.394	58
631.649	-27
631.905	-169
632.16	-69
632.415	127
632.67	-44
632.926	-169
633.181	-165
633.436	-29
633.691	-88
633.946	-222
634.202	-196
634.457	-29
634.712	-72
634.967	-178
635.222	-229
635.477	-100
635.733	-101
635.988	-193
636.243	-154
636.498	-13
636.753	-31
637.008	-161
637.263	-89
637.518	-31
637.773	-53
638.028	-102
638.283	-80
638.539	27
638.794	-14
639.049	-135
639.304	-153
639.559	-88
639.814	-119
640.069	-155
640.324	-126
640.579	-24
640.834	-43
641.089	-165
641.344	-100
641.598	113
641.853	3
642.108	-152
642.363	-197
642.618	-18
642.873	-69
643.128	-180
643.383	-139
643.638	-19
643.893	32
644.148	-38
644.402	-132
644.657	-7
644.912	-78
645.167	-120
645.422	-52
645.677	-50
645.931	-7
646.186	19
646.441	-52
646.696	-79
646.951	-69
647.205	-94
647.46	-80
647.715	-60
647.97	90
648.224	193
648.479	-21
648.734	83
648.989	24
649.243	-79
649.498	-95
649.753	-42
650.007	-12
650.262	-92
650.517	-98
650.771	-51
651.026	-122
651.281	-222
651.535	-95
651.79	-51
652.045	-57
652.299	-146
652.554	-120
652.809	-23
653.063	118
653.318	-18
653.572	-108
653.827	42
654.081	-33
654.336	-167
654.591	-155
654.845	-38
655.1	-94
655.354	-120
655.609	-80
655.863	31
656.118	-4
656.372	-158
656.627	-132
656.881	-3
657.136	-60
657.39	-164
657.645	-49
657.899	68
658.153	-37
658.408	-127
658.662	-59
658.917	-29
659.171	-114
659.426	-180
659.68	-131
659.934	-26
660.189	-46
660.443	-154
660.697	0
660.952	82
661.206	-66
661.46	-209
661.715	-131
661.969	-14
662.223	-37
662.478	-132
662.732	-78
662.986	-33
663.241	-46
663.495	-169
663.749	-128
664.003	20
664.258	-54
664.512	-141
664.766	-88
665.02	-24
665.275	0
665.529	-163
665.783	-127
666.037	-39
666.291	-61
666.546	-137
666.8	-102
667.054	-108
667.308	-83
667.562	-245
667.816	-133
668.071	-40
668.325	-144
668.579	-155
668.833	-84
669.087	47
669.341	-32
669.595	-178
669.849	-118
670.103	-76
670.357	-72
670.612	-99
670.866	-116
671.12	-68
671.374	-86
671.628	-101
671.882	-151
672.136	-62
672.39	-69
672.644	-214
672.898	-69
673.152	83
673.406	7
673.66	-104
673.914	-37
674.168	36
674.422	-57
674.675	-151
674.929	-80
675.183	39
675.437	-19
675.691	-95
675.945	-36
676.199	85
676.453	-24
676.707	-163
676.961	-161
677.214	-61
677.468	-37
677.722	-45
677.976	-85
678.23	-24
678.484	-5
678.737	-170
678.991	-124
679.245	-43
679.499	-93
679.753	-157
680.006	-68
680.26	37
680.514	23
680.768	-120
681.021	-49
681.275	-51
681.529	-46
681.783	-100
682.036	-84
682.29	-107
682.544	-75
682.797	-117
683.051	-132
683.305	-79
683.559	-76
683.812	-48
684.066	-68
684.32	10
684.573	-28
684.827	-67
685.08	-19
685.334	60
685.588	-33
685.841	-164
686.095	-22
686.348	-4
686.602	-6
686.856	-44
687.109	-108
687.363	-63
687.616	-108
687.87	-217
688.123	-157
688.377	-60
688.63	-29
688.884	-47
689.137	71
689.391	78
689.644	-84
689.898	-187
690.151	-165
690.405	-36
690.658	-46
690.912	-117
691.165	-115
691.419	-57
691.672	-2
691.926	-92
692.179	-108
692.432	-29
692.686	-77
692.939	-200
693.193	-153
693.446	32
693.699	3
693.953	-17
694.206	-62
694.459	20
694.713	49
694.966	-105
695.219	-119
695.473	-16
695.726	-106
695.979	-167
696.233	-62
696.486	11
696.739	-27
696.992	-161
697.246	-31
697.499	44
697.752	-124
698.006	-155
698.259	-48
698.512	-51
698.765	-102
699.018	-139
699.272	-60
699.525	-95
699.778	-141
700.031	-160
700.284	-137
700.538	-29
700.791	-39
701.044	-104
701.297	-79
701.55	-45
701.803	-85
702.056	-196
702.31	-112
702.563	-14
702.816	-106
703.069	-248
703.322	-157
703.575	-42
703.828	11
704.081	-121
704.334	-125
704.587	-67
704.84	-121
705.093	-120
705.346	13
705.599	-13
705.853	-25
706.106	17
706.359	242
706.612	-5
706.865	13
707.118	-171
707.37	-93
707.623	36
707.876	-12
708.129	-58
708.382	42
708.635	131
708.888	-49
709.141	-155
709.394	-48
709.647	39
709.9	-86
710.153	-220
710.406	-102
710.658	8
710.911	-71
711.164	-160
711.417	-131
711.67	-83
711.923	-19
712.176	-164
712.428	-128
712.681	-55
712.934	-16
713.187	-102
713.44	-148
713.692	-7
713.945	-79
714.198	-178
714.451	-196
714.704	-46
714.956	9
715.209	2
715.462	-45
715.715	-26
715.967	4
716.22	-128
716.473	-134
716.725	21
716.978	-39
717.231	-50
717.484	-2
717.736	-79
717.989	-149
718.242	-223
718.494	-107
718.747	15
718.999	-65
719.252	-52
719.505	-50
719.757	-35
720.01	-44
720.263	-110
720.515	-100
720.768	8
721.02	-29
721.273	-159
721.525	-179
721.778	-66
722.031	8
722.283	-128
722.536	-119
722.788	-51
723.041	-94
723.293	-155
723.546	-156
723.798	-46
724.051	16
724.303	-36
724.556	-37
724.808	111
725.061	29
725.313	-77
725.566	-76
725.818	-43
726.071	-77
726.323	-211
726.575	-118
726.828	36
727.08	43
727.333	-127
727.585	-104
727.837	-46
728.09	-53
728.342	-188
728.595	-84
728.847	80
729.099	-135
729.352	-160
729.604	-141
729.856	-51
730.109	-68
730.361	-165
730.613	-76
730.866	31
731.118	-102
731.37	-160
731.622	-139
731.875	-66
732.127	-19
732.379	-68
732.631	-13
732.884	-4
733.136	-55
733.388	-155
733.64	-97
733.893	19
734.145	-47
734.397	-175
734.649	-171
734.901	-60
735.154	-118
735.406	-195
735.658	-140
735.91	-10
736.162	-51
736.414	-169
736.667	-82
736.919	-37
737.171	-124
737.423	-151
737.675	-112
737.927	20
738.179	-46
738.431	-107
738.684	-163
738.936	-74
739.188	-3
739.44	-199
739.692	-192
739.944	-157
740.196	-123
740.448	-174
740.7	-162
740.952	-86
741.204	-93
741.456	-183
741.708	-98
741.96	-98
742.212	-31
742.464	-51
742.716	-175
742.968	-69
743.22	-139
743.472	-211
743.724	-140
743.976	-3
744.228	7
744.48	-227
744.732	-179
744.983	-4
745.235	-30
745.487	-136
745.739	-99
745.991	-110
746.243	-15
746.495	-171
746.747	-181
746.999	-70
747.25	-73
747.502	-112
747.754	-22
748.006	-85
748.258	16
748.51	25
748.761	-124
749.013	-51
749.265	32
749.517	-1
749.768	33
750.02	60
750.272	-2
750.524	-166
750.776	-207
751.027	-5
751.279	48
751.531	-188
751.782	-104
752.034	18
752.286	-88
752.538	-210
752.789	-103
753.041	-25
753.293	-64
753.544	-118
753.796	-110
754.048	-5
754.299	-15
754.551	-78
754.803	-115
755.054	-96
755.306	-28
755.558	-144
755.809	-125
756.061	27
756.312	-86
756.564	-104
756.816	-75
757.067	-59
757.319	-91
757.57	-128
757.822	-61
758.073	31
758.325	-14
758.577	-160
758.828	-136
759.08	80
759.331	77
759.583	-135
759.834	-37
760.086	-61
760.337	-94
760.589	-148
760.84	-128
761.092	-46
761.343	-73
761.595	-213
761.846	-73
762.097	-31
762.349	-94
762.6	-245
762.852	-85
763.103	60
763.355	-78
763.606	-182
763.857	-44
764.109	59
764.36	-35
764.612	-113
764.863	-14
765.114	-8
765.366	-127
765.617	-225
765.868	-149
766.12	5
766.371	13
766.622	-179
766.874	-109
767.125	11
767.376	-107
767.628	-181
767.879	-124
768.13	-20
768.381	-26
768.633	-85
768.884	-80
769.135	-3
769.386	-25
769.638	-94
769.889	-70
770.14	-39
770.391	-132
770.643	-175
770.894	-176
771.145	-57
771.396	-111
771.647	-205
771.899	-81
772.15	7
772.401	-45
772.652	-185
772.903	-154
773.154	188
773.406	424
773.657	-109
773.908	-122
774.159	-42
774.41	-15
774.661	-158
774.912	-104
775.163	53
775.414	59
775.666	-169
775.917	-162
776.168	-96
776.419	-93
776.67	-184
776.921	-181
777.172	-94
777.423	-66
777.674	-45
777.925	-43
778.176	-103
778.427	-111
778.678	-173
778.929	-145
779.18	-51
779.431	-119
779.682	-119
779.933	-97
780.184	-72
780.435	-87
780.686	-141
780.937	-85
781.188	-42
781.439	70
781.69	22
781.941	-62
782.191	-47
782.442	-58
782.693	-150
782.944	-171
783.195	-81
783.446	-58
783.697	-44
783.948	-152
784.199	-109
784.449	-132
784.7	-116
784.951	-98
785.202	47
785.453	11
785.704	-173
785.954	-189
786.205	-99
786.456	-160
786.707	-248
786.958	-191
787.208	-88
787.459	-121
787.71	-97
787.961	-126
788.211	-79
788.462	-83
788.713	-132
788.964	-140
789.214	-40
789.465	-20
789.716	-99
789.967	-104
790.217	-108
790.468	-129
790.719	-192
790.969	-155
791.22	-94
791.471	-29
791.721	2
791.972	-107
792.223	-31
792.473	-104
792.724	-120
792.975	-141
793.225	-52
793.476	-103
793.726	-174
793.977	-71
794.228	63
794.478	-68
794.729	-168
794.979	-59
795.23	-17
795.481	-66
795.731	-175
795.982	-112
796.232	-120
796.483	-157
796.733	-191
796.984	-137
797.234	-68
797.485	-36
797.735	-190
797.986	-155
798.236	-7
798.487	-76
798.737	-89
798.988	-29
799.238	23
799.489	-69
799.739	-171
799.99	-109
800.24	-18
800.491	41
800.741	-101
800.991	-153
801.242	-79
801.492	-66
801.743	-118
801.993	3
802.244	109
802.494	-51
802.744	-100
802.995	-70
803.245	-50
803.495	-86
803.746	-137
803.996	-51
804.246	-53
804.497	-53
804.747	-181
804.997	-110
805.248	-105
805.498	-139
805.748	-107
805.999	-199
806.249	-115
806.499	-124
806.75	-208
807	-183
807.25	-85
807.5	-125
807.751	-120
808.001	-64
808.251	-46
808.501	24
808.752	8
809.002	-47
809.252	-55
809.502	-108
809.752	-153
810.003	-180
810.253	-99
810.503	-70
810.753	-39
811.003	-38
811.254	0
811.504	-80
811.754	-119
812.004	-101
812.254	145
812.504	-44
812.754	-139
813.005	-57
813.255	15
813.505	-57
813.755	-153
814.005	-85
814.255	-69
814.505	-106
814.755	-200
815.005	-174
815.255	-51
815.505	-98
815.756	-51
816.006	-69
816.256	-112
816.506	-159
816.756	-219
817.006	-159
817.256	-59
817.506	-78
817.756	-122
818.006	-104
818.256	-58
818.506	-74
818.756	-185
819.006	-141
819.256	-60
819.506	-109
819.756	-163
820.006	-75
820.255	-18
820.505	-49
820.755	-181
821.005	-116
821.255	-20
821.505	-64
821.755	-136
822.005	-55
822.255	21
822.505	-73
822.755	-55
823.004	-188
823.254	-148
823.504	-74
823.754	-65
824.004	-141
824.254	-32
824.504	-40
824.753	-26
825.003	-29
825.253	8
825.503	-92
825.753	-136
826.002	-58
826.252	147
826.502	-53
826.752	-153
827.002	-118
827.251	-11
827.501	-79
827.751	-158
828.001	-117
828.25	-14
828.5	-157
828.75	-175
829	-82
829.249	31
829.499	-117
829.749	-132
829.998	-61
830.248	-32
830.498	-149
830.748	-146
830.997	-90
831.247	-1
831.497	-6
831.746	-91
831.996	-6
832.246	104
832.495	108
832.745	-162
832.994	-143
833.244	5
833.494	-93
833.743	-179
833.993	-121
834.243	-41
834.492	-64
834.742	-79
834.991	-100
835.241	77
835.49	-76
835.74	-205
835.99	-123
836.239	-11
836.489	5
836.738	-90
836.988	-196
837.237	-78
837.487	31
837.736	-93
837.986	-120
838.235	-46
838.485	-106
838.734	-147
838.984	-48
839.233	-72
839.483	-160
839.732	-177
839.982	-88
840.231	-30
840.481	-28
840.73	-145
840.979	-89
841.229	-68
841.478	-68
841.728	-208
841.977	-223
842.227	-141
842.476	-169
842.725	-219
842.975	-155
843.224	-45
843.474	8
843.723	-107
843.972	-124
844.222	-66
844.471	-21
844.72	-125
844.97	-122
845.219	-27
845.468	-38
845.718	-92
845.967	-72
846.216	-30
846.466	15
846.715	-100
846.964	-108
847.214	-107
847.463	-154
847.712	-114
847.961	-140
848.211	-65
848.46	-65
848.709	-116
848.958	-143
849.208	-81
849.457	-72
849.706	-66
849.955	-116
850.205	-127
850.454	15
850.703	40
850.952	-29
851.201	15
851.451	-40
851.7	-34
851.949	-166
852.198	-61
852.447	-74
852.696	-155
852.946	-112
853.195	-17
853.444	-22
853.693	-195
853.942	-191
854.191	-77
854.44	-54
854.689	-100
854.939	-154
855.188	-171
855.437	-129
855.686	-147
855.935	-108
856.184	-30
856.433	16
856.682	-60
856.931	-54
857.18	-35
857.429	-118
857.678	-146
857.927	-89
858.176	-67
858.425	-137
858.674	-205
858.924	-95
859.173	-83
859.422	-60
859.671	-188
859.92	-130
860.169	-69
860.417	-34
860.666	-104
860.915	-139
861.164	-103
861.413	-128
861.662	-189
861.911	-135
862.16	-17
862.409	-65
862.658	-205
862.907	-164
863.156	-50
863.405	-52
863.654	-159
863.903	-205
864.151	-114
864.4	-81
864.649	-127
864.898	-73
865.147	-40
865.396	-17
865.645	-168
865.894	-89
866.142	36
866.391	-65
866.64	-185
866.889	-86
867.138	59
867.387	-37
867.635	-135
867.884	-81
868.133	17
868.382	-57
868.631	-180
868.879	-165
869.128	-63
869.377	-78
869.626	-121
869.874	-109
870.123	-2
870.372	-59
870.621	-188
870.869	-141
871.118	-25
871.367	-47
871.616	-173
871.864	-65
872.113	-17
872.362	-65
872.61	-124
872.859	-70
873.108	1
873.357	-86
873.605	-178
873.854	-162
874.103	-126
874.351	-119
874.6	-129
874.848	-80
875.097	-37
875.346	-44
875.594	-163
875.843	-47
876.092	97
876.34	-22
876.589	-142
876.837	-227
877.086	-136
877.335	-64
877.583	-107
877.832	-50
878.08	48
878.329	-57
878.578	-118
878.826	-102
879.075	-29
879.323	-31
879.572	-118
879.82	2
880.069	-33
880.317	-16
880.566	-131
880.814	-29
881.063	91
881.311	-21
881.56	8
881.808	-90
882.057	-9
882.305	-34
882.554	-33
882.802	-126
883.051	-78
883.299	-62
883.548	-106
883.796	-16
884.045	-27
884.293	-91
884.541	-207
884.79	-214
885.038	-104
885.287	-88
885.535	-76
885.783	-61
886.032	-109
886.28	-137
886.529	-180
886.777	-105
887.025	58
887.274	-59
887.522	-145
887.77	-120
888.019	-102
888.267	-135
888.516	-191
888.764	-148
889.012	-59
889.261	-69
889.509	-160
889.757	-148
890.005	-96
890.254	-147
890.502	-117
890.75	98
890.999	93
891.247	-25
891.495	-63
891.743	-72
891.992	76
892.24	-29
892.488	-151
892.737	-157
892.985	-63
893.233	-65
893.481	-119
893.729	-134
893.978	24
894.226	35
894.474	-118
894.722	-128
894.97	-86
895.219	-91
895.467	-64
895.715	-33
895.963	-75
896.211	-129
896.46	-191
896.708	-97
896.956	-1
897.204	66
897.452	-36
897.7	-99
897.948	-17
898.197	-60
898.445	-123
898.693	-99
898.941	-29
899.189	-60
899.437	-101
899.685	-8
899.933	-70
900.181	-53
900.43	-132
900.678	-124
900.926	-35
901.174	-64
901.422	-133
901.67	-101
901.918	-15
902.166	-62
902.414	-203
902.662	-139
902.91	-37
903.158	-61
903.406	-124
903.654	-114
903.902	-64
904.15	-84
904.398	-207
904.646	-89
904.894	-2
905.142	-8
905.39	-51
905.638	-114
905.886	-80
906.134	-91
906.382	-104
906.63	-132
906.878	-56
907.126	-72
907.374	-131
907.622	-135
907.869	-17
908.117	-19
908.365	-116
908.613	-131
908.861	-115
909.109	-147
909.357	-174
909.605	-101
909.853	-9
910.1	-83
910.348	-241
910.596	-198
910.844	-9
911.092	26
911.34	-94
911.588	-72
911.835	-31
912.083	-63
912.331	-72
912.579	-33
912.827	138
913.075	-3
913.322	-144
913.57	-137
913.818	2
914.066	-53
914.313	-143
914.561	-55
914.809	-36
915.057	-82
915.305	-99
915.552	-105
915.8	-1
916.048	-87
916.296	-159
916.543	-45
916.791	49
917.039	-42
917.286	-163
917.534	-128
917.782	-2
918.03	-73
918.277	-187
918.525	-190
918.773	-66
919.02	-81
919.268	-143
919.516	-104
919.763	-101
920.011	-92
920.259	-183
920.506	-100
920.754	-5
921.002	-24
921.249	-55
921.497	-99
921.745	-65
921.992	-32
922.24	-176
922.487	-63
922.735	103
922.983	27
923.23	-77
923.478	-133
923.725	-44
923.973	-28
924.221	-47
924.468	-13
924.716	-30
924.963	-62
925.211	-121
925.458	-50
925.706	61
925.953	74
926.201	-99
926.448	-110
926.696	-17
926.944	-49
927.191	-105
927.439	-116
927.686	-71
927.934	-48
928.181	-159
928.429	-157
928.676	-82
928.923	-142
929.171	-183
929.418	-54
929.666	14
929.913	6
930.161	-199
930.408	-149
930.656	-55
930.903	-23
931.151	-153
931.398	-112
931.645	3
931.893	-76
932.14	-105
932.388	-85
932.635	61
932.882	114
933.13	-21
933.377	-101
933.625	-21
933.872	-89
934.119	-161
934.367	-106
934.614	-115
934.861	-125
935.109	-115
935.356	-55
935.603	3
935.851	-69
936.098	-114
936.345	-20
936.593	-5
936.84	-56
937.087	-185
937.335	-130
937.582	-58
937.829	-27
938.077	-65
938.324	-92
938.571	-17
938.818	-83
939.066	-131
939.313	-163
939.56	-47
939.807	-32
940.055	-159
940.302	-121
940.549	54
940.796	-36
941.044	-101
941.291	-77
941.538	87
941.785	-35
942.033	-93
942.28	-27
942.527	11
942.774	-18
943.021	-176
943.269	-126
943.516	-15
943.763	-16
944.01	-97
944.257	-21
944.504	56
944.752	12
944.999	-49
945.246	-127
945.493	-48
945.74	-61
945.987	-128
946.234	-59
946.482	32
946.729	-93
946.976	-156
947.223	-111
947.47	54
947.717	6
947.964	8
948.211	-37
948.458	12
948.705	-35
948.952	-121
949.2	-72
949.447	56
949.694	37
949.941	-101
950.188	-123
950.435	-105
950.682	-61
950.929	-180
951.176	-126
951.423	33
951.67	3
951.917	-35
952.164	-27
952.411	25
952.658	76
952.905	-83
953.152	-139
953.399	-16
953.646	-22
953.893	-146
954.14	-100
954.387	-47
954.634	-62
954.881	-125
955.128	-56
955.375	-63
955.622	-65
955.869	-64
956.115	-92
956.362	-4
956.609	-36
956.856	-109
957.103	-93
957.35	5
957.597	6
957.844	-97
958.091	-83
958.338	6
958.585	-63
958.831	-222
959.078	-131
959.325	33
959.572	-75
959.819	-155
960.066	-189
960.313	-71
960.559	-84
960.806	-196
961.053	-140
961.3	23
961.547	45
961.794	-162
962.04	-15
962.287	13
962.534	-113
962.781	-136
963.028	-67
963.274	48
963.521	-57
963.768	-130
964.015	-96
964.262	63
964.508	-70
964.755	-174
965.002	-150
965.249	-97
965.495	-125
965.742	-161
965.989	-160
966.236	-30
966.482	-92
966.729	-159
966.976	-169
967.222	-96
967.469	-83
967.716	-167
967.963	-143
968.209	-64
968.456	-109
968.703	-209
968.949	-106
969.196	83
969.443	84
969.689	-157
969.936	-192
970.183	-65
970.429	-120
970.676	-166
970.923	-97
971.169	-19
971.416	-103
971.663	-140
971.909	-89
972.156	-23
972.402	-34
972.649	-97
972.896	-72
973.142	-57
973.389	-27
973.635	-120
973.882	-17
974.129	51
974.375	-76
974.622	-154
974.868	-135
975.115	-64
975.361	-107
975.608	-133
975.855	-19
976.101	11
976.348	-55
976.594	-118
976.841	-68
977.087	-60
977.334	-24
977.58	-170
977.827	-163
978.073	-2
978.32	-25
978.566	-171
978.813	-105
979.059	-59
979.306	-85
979.552	-175
979.799	-89
980.045	-83
980.292	-83
980.538	-152
980.785	-160
981.031	-120
981.278	-150
981.524	-209
981.771	-53
982.017	82
982.263	-3
982.51	-154
982.756	-75
983.003	-8
983.249	-68
983.495	-141
983.742	-164
983.988	-95
984.235	-57
984.481	-154
984.727	-133
984.974	-11
985.22	-31
985.467	-103
985.713	-97
985.959	16
986.206	-14
986.452	-85
986.698	-54
986.945	-43
987.191	7
987.437	-5
987.684	-61
987.93	102
988.176	16
988.423	-168
988.669	-99
988.915	62
989.162	-80
989.408	-167
989.654	-95
989.901	-70
990.147	-62
990.393	-62
990.639	-16
990.886	-1
991.132	57
991.378	-5
991.625	115
991.871	96
992.117	9
992.363	-58
992.61	-41
992.856	73
993.102	-64
993.348	-123
993.594	-98
993.841	-62
994.087	102
994.333	-40
994.579	-72
994.826	-29
995.072	-20
995.318	-217
995.564	-151
995.81	-28
996.057	-69
996.303	-178
996.549	-166
996.795	-60
997.041	-73
997.287	-118
997.534	-121
997.78	-63
998.026	-51
998.272	-173
998.518	-176
998.764	-24
999.01	11
999.256	-94
999.503	-144
999.749	-105
999.995	-141
1000.241	-171
1000.487	-94
1000.733	-50
1000.979	-89
1001.225	-105
1001.471	-48
1001.718	-4
1001.964	37
1002.21	-128
1002.456	-105
1002.702	40
1002.948	-54
1003.194	-134
1003.44	-155
1003.686	-51
1003.932	-112
1004.178	-145
1004.424	-94
1004.67	48
1004.916	19
1005.162	-80
1005.408	-124
1005.654	29
1005.9	-136
1006.146	-207
1006.392	-130
1006.638	-33
1006.884	-75
1007.13	-159
1007.376	-183
1007.622	-4
1007.868	21
1008.114	-120
1008.36	-50
1008.606	-11
1008.852	14
1009.098	-58
1009.344	-19
1009.59	-31
1009.836	-176
1010.082	-243
1010.328	-129
1010.574	-42
1010.82	-138
1011.065	-216
1011.311	-193
1011.557	-73
1011.803	-109
1012.049	-167
1012.295	-115
1012.541	-72
1012.787	-71
1013.033	-217
1013.278	-218
1013.524	-72
1013.77	6
1014.016	-110
1014.262	-110
1014.508	8
1014.754	-154
1015	-181
1015.245	-8
1015.491	9
1015.737	-30
1015.983	-157
1016.229	-179
1016.475	-64
1016.72	67
1016.966	84
1017.212	-47
1017.458	23
1017.704	-48
1017.949	-179
1018.195	-3
1018.441	89
1018.687	29
1018.933	-108
1019.178	-107
1019.424	51
1019.67	65
1019.916	-134
1020.161	-109
1020.407	-28
1020.653	-88
1020.899	-147
1021.144	-81
1021.39	14
1021.636	-113
1021.882	-202
1022.127	-81
1022.373	86
1022.619	11
1022.865	-101
1023.11	-96
1023.356	42
1023.602	-44
1023.847	-113
1024.093	-52
1024.339	-77
1024.584	-93
1024.83	-115
1025.076	-113
1025.321	10
1025.567	-20
1025.813	-136
1026.058	-53
1026.304	5
1026.55	-67
1026.795	-85
1027.041	-88
1027.287	-32
1027.532	-21
1027.778	-46
1028.024	-78
1028.269	-35
1028.515	-109
1028.76	-153
1029.006	-69
1029.252	14
1029.497	-55
1029.743	-69
1029.989	-133
1030.234	8
1030.48	89
1030.725	-113
1030.971	-70
1031.216	42
1031.462	-43
1031.708	-173
1031.953	-124
1032.199	-53
1032.444	-31
1032.69	-68
1032.935	-93
1033.181	23
1033.426	-102
1033.672	-225
1033.918	-171
1034.163	-66
1034.409	-78
1034.654	-117
1034.9	-31
1035.145	19
1035.391	-60
1035.636	-180
1035.882	-98
1036.127	-107
1036.373	-132
1036.618	-218
1036.864	-100
1037.109	35
1037.355	-59
1037.6	-133
1037.845	-100
1038.091	101
1038.336	42
1038.582	52
1038.827	133
1039.073	-18
1039.318	-105
1039.564	-197
1039.809	-125
1040.055	66
1040.3	59
1040.545	-104
1040.791	-124
1041.036	-68
1041.282	-27
1041.527	36
1041.772	-147
1042.018	-70
1042.263	-48
1042.509	-199
1042.754	-151
1042.999	-29
1043.245	-46
1043.49	-217
1043.736	-128
1043.981	-45
1044.226	-31
1044.472	-49
1044.717	-52
1044.962	55
1045.208	-31
1045.453	-263
1045.698	-184
1045.944	18
1046.189	-27
1046.434	-109
1046.68	-96
1046.925	67
1047.17	-96
1047.416	-252
1047.661	-136
1047.906	8
1048.152	-17
1048.397	-100
1048.642	-110
1048.887	72
1049.133	78
1049.378	-86
1049.623	-109
1049.869	10
1050.114	-47
1050.359	-123
1050.604	-55
1050.85	103
1051.095	-34
1051.34	-140
1051.585	-83
1051.831	113
1052.076	-37
1052.321	-249
1052.566	-132
1052.812	64
1053.057	-32
1053.302	-106
1053.547	-38
1053.792	27
1054.038	11
1054.283	-180
1054.528	-86
1054.773	-7
1055.018	-33
1055.264	-145
1055.509	-159
1055.754	-21
1055.999	-96
1056.244	-188
1056.49	-105
1056.735	-15
1056.98	-58
1057.225	-172
1057.47	16
1057.715	-47
1057.96	-127
1058.206	-171
1058.451	-90
1058.696	62
1058.941	4
1059.186	-175
1059.431	-135
1059.676	59
1059.922	-9
1060.167	63
1060.412	235
1060.657	17
1060.902	-35
1061.147	-207
1061.392	-108
1061.637	41
1061.882	-43
1062.127	-189
1062.373	-183
1062.618	80
1062.863	94
1063.108	-104
1063.353	-156
1063.598	-60
1063.843	-79
1064.088	-161
1064.333	-152
1064.578	7
1064.823	19
1065.068	-230
1065.313	-140
1065.558	18
1065.803	8
1066.048	-180
1066.293	-160
1066.538	55
1066.783	-12
1067.028	-214
1067.273	-200
1067.518	7
1067.763	-51
1068.008	-217
1068.253	-140
1068.498	42
1068.743	-38
1068.988	-181
1069.233	-173
1069.478	39
1069.723	113
1069.968	-101
1070.213	-56
1070.458	39
1070.703	-46
1070.948	-224
1071.193	-109
1071.438	6
1071.683	40
1071.928	-77
1072.173	-98
1072.418	-24
1072.663	-60
1072.908	-193
1073.152	-128
1073.397	47
1073.642	-60
1073.887	-107
1074.132	7
1074.377	-4
1074.622	-32
1074.867	-144
1075.112	-86
1075.357	96
1075.601	-46
1075.846	-95
1076.091	0
1076.336	48
1076.581	-85
1076.826	-188
1077.071	-108
1077.315	138
1077.56	56
1077.805	-156
1078.05	-103
1078.295	-49
1078.54	-75
1078.785	-188
1079.029	-136
1079.274	38
1079.519	-89
1079.764	-188
1080.009	-72
1080.253	7
1080.498	-95
1080.743	-241
1080.988	-89
1081.233	122
1081.478	65
1081.722	-138
1081.967	-45
1082.212	119
1082.457	4
1082.701	-137
1082.946	-99
1083.191	27
1083.436	-79
1083.681	-220
1083.925	-108
1084.17	-12
1084.415	20
1084.66	-195
1084.904	-109
1085.149	-24
1085.394	-60
1085.639	-230
1085.883	-112
1086.128	136
1086.373	139
1086.617	-96
1086.862	-168
1087.107	-40
1087.352	-88
1087.596	-174
1087.841	-35
1088.086	16
1088.33	1
1088.575	-245
1088.82	-109
1089.064	62
1089.309	-97
1089.554	-211
1089.798	-167
1090.043	25
1090.288	-21
1090.533	-215
1090.777	-141
1091.022	33
1091.266	65
1091.511	-118
1091.756	-39
1092	119
1092.245	75
1092.49	-163
1092.734	-116
1092.979	64
1093.224	-41
1093.468	-192
1093.713	-135
1093.957	3
1094.202	-49
1094.447	-214
1094.691	-91
1094.936	32
1095.181	-23
1095.425	-195
1095.67	-159
1095.914	-6
1096.159	-2
1096.403	-144
1096.648	-57
1096.893	56
1097.137	-94
1097.382	-221
1097.626	-162
1097.871	0
1098.115	-47
1098.36	-197
1098.605	-114
1098.849	-56
1099.094	-131
1099.338	-204
1099.583	-89
1099.827	138
1100.072	31
1100.316	-176
1100.561	-118
1100.805	56
1101.05	24
1101.294	-182
1101.539	-171
1101.783	4
1102.028	-4
1102.273	-171
1102.517	-100
1102.761	39
1103.006	-68
1103.25	-281
1103.495	-178
1103.739	50
1103.984	99
1104.228	-89
1104.473	-26
1104.717	39
1104.962	-5
1105.206	-140
1105.451	-163
1105.695	9
1105.94	-21
1106.184	-151
1106.429	-101
1106.673	9
1106.917	69
1107.162	-165
1107.406	-24
1107.651	126
1107.895	-92
1108.14	-191
1108.384	-105
1108.628	102
1108.873	103
1109.117	-139
1109.362	-108
1109.606	-33
1109.85	-26
1110.095	-163
1110.339	-98
1110.584	99
1110.828	31
1111.072	-76
1111.317	-125
1111.561	-30
1111.806	-47
1112.05	-187
1112.294	-92
1112.539	20
1112.783	-12
1113.027	-138
1113.272	-127
1113.516	-39
1113.76	-59
1114.005	-141
1114.249	-63
1114.493	72
1114.738	98
1114.982	-40
1115.226	-92
1115.471	-6
1115.715	-31
1115.959	-201
1116.204	-184
1116.448	-7
1116.692	-88
1116.937	-180
1117.181	-31
1117.425	-29
1117.67	-78
1117.914	-155
1118.158	-98
1118.402	138
1118.647	51
1118.891	-78
1119.135	-20
1119.38	97
1119.624	19
1119.868	-134
1120.112	-159
1120.357	-58
1120.601	-118
1120.845	-205
1121.089	-137
1121.334	27
