Data from HR4C21111__41__10-14-40-153.txt Node

Date: Mon Feb 22 10:14:40 IST 2021
User: Kapil
Spectrometer: HR4C2111
Trigger mode: 4
Integration Time (sec): 2.300000E0
Scans to average: 1
Electric dark correction enabled: true
Nonlinearity correction enabled: false
Boxcar width: 0
XAxis mode: Wavelengths
Number of Pixels in Spectrum: 3648
>>>>>Begin Spectral Data<<<<<
189.472	-450
189.745	-450
190.017	-450
190.289	-459
190.561	-280
190.834	-4
191.106	-104
191.378	16
191.65	3
191.923	-147
192.195	-106
192.467	109
192.739	110
193.011	-20
193.284	86
193.556	173
193.828	-17
194.1	-99
194.372	-125
194.644	52
194.916	58
195.188	-169
195.46	-92
195.732	43
196.004	-21
196.276	-97
196.548	-69
196.82	66
197.092	59
197.364	-143
197.636	-98
197.908	19
198.18	-60
198.452	-101
198.724	-50
198.996	51
199.268	74
199.54	-21
199.811	-118
200.083	89
200.355	16
200.627	-193
200.899	-69
201.171	42
201.442	-52
201.714	-180
201.986	-102
202.258	52
202.529	93
202.801	-13
203.073	58
203.345	178
203.616	1
203.888	-146
204.16	-159
204.431	70
204.703	2
204.974	-137
205.246	-5
205.518	191
205.789	-4
206.061	-134
206.332	-111
206.604	3
206.876	87
207.147	127
207.419	9
207.69	122
207.962	-26
208.233	-181
208.505	15
208.776	193
209.047	92
209.319	-114
209.59	-87
209.862	145
210.133	43
210.404	-168
210.676	-113
210.947	80
211.219	79
211.49	-118
211.761	-61
212.033	32
212.304	-33
212.575	-177
212.846	-89
213.118	18
213.389	-57
213.66	-99
213.931	-36
214.203	28
214.474	-33
214.745	-138
215.016	140
215.287	437
215.559	62
215.83	-119
216.101	-68
216.372	-13
216.643	71
216.914	11
217.185	-93
217.456	142
217.727	5
217.998	-159
218.269	-56
218.54	32
218.811	-15
219.082	-113
219.353	-75
219.624	-22
219.895	-36
220.166	-135
220.437	-119
220.708	84
220.979	-18
221.25	-149
221.521	-99
221.792	18
222.063	88
222.334	51
222.604	185
222.875	171
223.146	92
223.417	-176
223.688	-40
223.958	126
224.229	-64
224.5	-201
224.771	-87
225.041	80
225.312	47
225.583	-112
225.854	-56
226.124	90
226.395	-17
226.666	-142
226.936	-112
227.207	64
227.478	-63
227.748	-103
228.019	55
228.289	260
228.56	-31
228.831	-53
229.101	48
229.372	75
229.642	-23
229.913	-168
230.183	-126
230.454	-3
230.724	-5
230.995	-110
231.265	-61
231.536	75
231.806	35
232.076	-124
232.347	-132
232.617	20
232.888	13
233.158	-60
233.428	-127
233.699	-19
233.969	-47
234.239	-160
234.51	-90
234.78	39
235.05	-13
235.321	-117
235.591	-52
235.861	58
236.131	-60
236.402	-198
236.672	-95
236.942	35
237.212	41
237.483	-72
237.753	-19
238.023	139
238.293	6
238.563	-87
238.833	-100
239.103	55
239.374	-27
239.644	-152
239.914	-26
240.184	141
240.454	-7
240.724	-175
240.994	-71
241.264	19
241.534	62
241.804	-17
242.074	-99
242.344	-40
242.614	-55
242.884	-174
243.154	-141
243.424	31
243.694	71
243.964	-86
244.234	-76
244.503	130
244.773	9
245.043	-209
245.313	-135
245.583	124
245.853	72
246.123	-186
246.392	-113
246.662	-3
246.932	-38
247.202	-178
247.471	-65
247.741	247
248.011	104
248.281	-143
248.55	-99
248.82	68
249.09	-18
249.359	-97
249.629	-91
249.899	52
250.168	76
250.438	-5
250.708	-105
250.977	65
251.247	50
251.516	-123
251.786	-66
252.055	123
252.325	18
252.595	-95
252.864	-77
253.134	42
253.403	-27
253.673	-167
253.942	-108
254.212	36
254.481	-7
254.75	-148
255.02	-93
255.289	91
255.559	-7
255.828	-124
256.097	-25
256.367	35
256.636	-65
256.906	-144
257.175	-34
257.444	229
257.714	55
257.983	-73
258.252	-39
258.521	4
258.791	39
259.06	-113
259.329	-61
259.598	47
259.868	-6
260.137	-142
260.406	-33
260.675	76
260.944	21
261.214	-129
261.483	-50
261.752	170
262.021	7
262.29	-175
262.559	-124
262.828	28
263.097	-44
263.366	-204
263.635	-74
263.905	144
264.174	12
264.443	-204
264.712	-123
264.981	29
265.25	-57
265.519	-147
265.788	-159
266.057	35
266.325	53
266.594	-51
266.863	-125
267.132	3
267.401	-21
267.67	-200
267.939	-149
268.208	26
268.477	71
268.745	-130
269.014	-104
269.283	112
269.552	15
269.821	-134
270.089	-17
270.358	-11
270.627	-41
270.896	-149
271.164	-167
271.433	13
271.702	82
271.971	-148
272.239	-149
272.508	11
272.777	-45
273.045	-40
273.314	-30
273.583	97
273.851	-27
274.12	-168
274.388	-160
274.657	-17
274.926	-6
275.194	-149
275.463	-62
275.731	24
276	164
276.268	358
276.537	-82
276.805	18
277.074	33
277.342	-182
277.611	-104
277.879	99
278.148	27
278.416	-151
278.684	-122
278.953	-25
279.221	-40
279.49	-194
279.758	-96
280.026	-2
280.295	-21
280.563	-142
280.831	1020
281.1	2462
281.368	224
281.636	-101
281.904	-118
282.173	-18
282.441	-54
282.709	-107
282.977	11
283.246	37
283.514	-34
283.782	-71
284.05	23
284.318	73
284.587	-43
284.855	-139
285.123	-65
285.391	53
285.659	43
285.927	-141
286.195	-58
286.463	58
286.732	-8
287	-114
287.268	-58
287.536	23
287.804	-44
288.072	-134
288.34	-100
288.608	58
288.876	-41
289.144	-132
289.412	-31
289.68	50
289.948	-22
290.215	-114
290.483	-118
290.751	74
291.019	70
291.287	-191
291.555	-131
291.823	22
292.091	-20
292.358	-88
292.626	-39
292.894	66
293.162	27
293.43	-117
293.697	-88
293.965	35
294.233	-37
294.501	-174
294.768	-81
295.036	57
295.304	20
295.572	-136
295.839	-90
296.107	100
296.375	1
296.642	-144
296.91	-131
297.178	35
297.445	165
297.713	96
297.98	-92
298.248	-34
298.516	-48
298.783	-143
299.051	-129
299.318	1
299.586	-60
299.853	-108
300.121	-90
300.388	42
300.656	-7
300.923	-167
301.191	-68
301.458	41
301.726	-30
301.993	-158
302.26	-86
302.528	48
302.795	-21
303.063	-89
303.33	-53
303.597	11
303.865	10
304.132	-130
304.399	-133
304.667	-24
304.934	12
305.201	-112
305.469	-19
305.736	54
306.003	35
306.27	-53
306.538	-101
306.805	-17
307.072	-40
307.339	-98
307.606	-45
307.874	162
308.141	70
308.408	-129
308.675	-118
308.942	-54
309.209	-76
309.477	-143
309.744	-109
310.011	15
310.278	29
310.545	-34
310.812	-51
311.079	136
311.346	186
311.613	44
311.88	-27
312.147	-70
312.414	-53
312.681	-140
312.948	-43
313.215	131
313.482	81
313.749	-118
314.016	-210
314.283	-67
314.55	34
314.817	-102
315.083	-124
315.35	-82
315.617	-137
315.884	-165
316.151	38
316.418	153
316.684	-29
316.951	-185
317.218	-111
317.485	-23
317.752	-78
318.018	-138
318.285	-20
318.552	15
318.819	-66
319.085	-156
319.352	-62
319.619	37
319.885	-28
320.152	-202
320.419	-118
320.685	17
320.952	-38
321.219	-75
321.485	59
321.752	-2
322.019	-72
322.285	15
322.552	-20
322.818	113
323.085	-48
323.351	-134
323.618	-20
323.884	43
324.151	-61
324.417	-32
324.684	-77
324.95	-65
325.217	-152
325.483	-197
325.75	-52
326.016	-13
326.283	-29
326.549	-192
326.815	-89
327.082	89
327.348	10
327.615	-112
327.881	-37
328.147	113
328.414	111
328.68	9
328.946	-42
329.212	9
329.479	-25
329.745	-144
330.011	-123
330.278	-1
330.544	-64
330.81	-44
331.076	-35
331.342	-38
331.609	-35
331.875	-102
332.141	-105
332.407	8
332.673	-16
332.94	-30
333.206	-66
333.472	40
333.738	56
334.004	-131
334.27	-50
334.536	-29
334.802	-73
335.068	-124
335.334	0
335.6	9
335.866	-48
336.132	-182
336.398	-118
336.664	-34
336.93	-49
337.196	-101
337.462	-28
337.728	33
337.994	-42
338.26	-99
338.526	-45
338.792	-66
339.058	-64
339.324	-151
339.59	-16
339.856	42
340.121	-64
340.387	-122
340.653	81
340.919	140
341.185	44
341.45	-80
341.716	16
341.982	104
342.248	-78
342.514	-104
342.779	-18
343.045	15
343.311	-20
343.576	-104
343.842	-37
344.108	121
344.374	15
344.639	-136
344.905	-109
345.171	41
345.436	-85
345.702	-133
345.967	37
346.233	65
346.499	3
346.764	-185
347.03	-71
347.295	-55
347.561	-20
347.826	-70
348.092	-165
348.357	-51
348.623	-48
348.888	-150
349.154	-104
349.419	39
349.685	-5
349.95	-99
350.216	-67
350.481	26
350.747	-70
351.012	-193
351.277	-130
351.543	9
351.808	-38
352.074	-199
352.339	-153
352.604	24
352.87	-16
353.135	-131
353.4	-99
353.666	-33
353.931	-58
354.196	-189
354.461	-159
354.727	-4
354.992	-22
355.257	-165
355.522	-66
355.788	-40
356.053	14
356.318	-125
356.583	-143
356.848	30
357.113	98
357.379	-112
357.644	-126
357.909	57
358.174	76
358.439	-164
358.704	-95
358.969	8
359.234	28
359.499	-149
359.765	-88
360.03	22
360.295	27
360.56	-145
360.825	-77
361.09	124
361.355	-71
361.62	-117
361.885	-71
362.15	-86
362.415	-55
362.679	-146
362.944	7
363.209	21
363.474	25
363.739	-34
364.004	-124
364.269	-64
364.534	-25
364.799	-63
365.063	-59
365.328	40
365.593	22
365.858	-121
366.123	-125
366.387	8
366.652	-54
366.917	-174
367.182	-121
367.447	36
367.711	-22
367.976	-93
368.241	-38
368.505	29
368.77	-73
369.035	-92
369.299	-26
369.564	-3
369.829	-66
370.093	-114
370.358	-131
370.623	-31
370.887	0
371.152	-163
371.416	-93
371.681	-46
371.946	-140
372.21	-182
372.475	-46
372.739	-6
373.004	-68
373.268	-111
373.533	-47
373.797	1
374.062	1
374.326	-171
374.591	-77
374.855	-5
375.12	-78
375.384	-236
375.648	-153
375.913	-24
376.177	-8
376.442	-133
376.706	-124
376.97	8
377.235	-39
377.499	-72
377.763	-72
378.028	-80
378.292	-42
378.556	-124
378.821	-186
379.085	-114
379.349	-182
379.614	-250
379.878	-127
380.142	60
380.406	-38
380.671	-56
380.935	84
381.199	189
381.463	45
381.727	-26
381.991	-76
382.256	-13
382.52	-48
382.784	-31
383.048	79
383.312	-2
383.576	-45
383.84	-165
384.104	-103
384.369	-28
384.633	-136
384.897	-233
385.161	-110
385.425	20
385.689	-67
385.953	-130
386.217	-149
386.481	-41
386.745	-27
387.009	-60
387.273	-113
387.537	-68
387.801	-50
388.064	-137
388.328	-40
388.592	6
388.856	-56
389.12	-151
389.384	-68
389.648	-25
389.912	34
390.176	35
390.439	109
390.703	-61
390.967	-95
391.231	-175
391.495	-124
391.758	-51
392.022	-42
392.286	-173
392.55	-152
392.813	-55
393.077	3
393.341	-61
393.605	5
393.868	-40
394.132	-65
394.396	-88
394.659	29
394.923	-22
395.187	-93
395.45	-124
395.714	-61
395.978	-29
396.241	-29
396.505	-122
396.768	-73
397.032	-6
397.295	-16
397.559	-85
397.823	-114
398.086	23
398.35	-32
398.613	-173
398.877	-30
399.14	92
399.404	91
399.667	-33
399.931	-95
400.194	-5
400.457	-45
400.721	-87
400.984	18
401.248	-28
401.511	-50
401.775	-170
402.038	-121
402.301	74
402.565	12
402.828	-190
403.091	-115
403.355	-15
403.618	-17
403.881	-18
404.145	-70
404.408	0
404.671	-45
404.934	-53
405.198	-15
405.461	0
405.724	15
405.987	-28
406.251	26
406.514	112
406.777	-50
407.04	-130
407.303	-136
407.567	10
407.83	66
408.093	-128
408.356	-28
408.619	36
408.882	80
409.145	-43
409.408	-82
409.672	14
409.935	-42
410.198	-164
410.461	-71
410.724	83
410.987	-13
411.25	-156
411.513	-38
411.776	30
412.039	-74
412.302	-137
412.565	-125
412.828	-62
413.091	-75
413.354	-149
413.617	-107
413.879	-56
414.142	-40
414.405	-158
414.668	-87
414.931	41
415.194	2
415.457	-151
415.72	-69
415.983	-6
416.245	-20
416.508	-117
416.771	-154
417.034	-4
417.297	17
417.559	-37
417.822	-82
418.085	13
418.348	-2
418.61	-159
418.873	-134
419.136	-87
419.399	-102
419.661	-83
419.924	-109
420.187	-22
420.449	-45
420.712	-105
420.975	-140
421.237	-37
421.5	-39
421.762	-20
422.025	28
422.288	66
422.55	-100
422.813	-197
423.075	-128
423.338	-46
423.601	-8
423.863	-67
424.126	-66
424.388	48
424.651	-12
424.913	-87
425.176	-98
425.438	-55
425.701	16
425.963	-139
426.225	-170
426.488	-54
426.75	-68
427.013	-144
427.275	-101
427.538	-64
427.8	-76
428.062	-136
428.325	-51
428.587	34
428.849	-23
429.112	-102
429.374	-121
429.636	-58
429.899	26
430.161	-122
430.423	-83
430.686	14
430.948	-15
431.21	-127
431.472	-148
431.735	-66
431.997	-83
432.259	-55
432.521	-128
432.783	-28
433.046	-44
433.308	-140
433.57	-78
433.832	123
434.094	-72
434.356	-186
434.618	-104
434.881	-24
435.143	-84
435.405	-74
435.667	-28
435.929	-34
436.191	-70
436.453	-148
436.715	-68
436.977	-1
437.239	-51
437.501	-172
437.763	-137
438.025	-7
438.287	-28
438.549	-116
438.811	-80
439.073	-42
439.335	-119
439.597	-132
439.859	-47
440.121	67
440.383	-108
440.645	-126
440.907	-54
441.168	-15
441.43	-79
441.692	-167
441.954	-117
442.216	-45
442.478	-78
442.74	-182
443.001	-74
443.263	86
443.525	12
443.787	-134
444.048	-114
444.31	-82
444.572	-80
444.834	-124
445.095	-115
445.357	14
445.619	-17
445.881	-211
446.142	-142
446.404	-79
446.666	-69
446.927	-120
447.189	-2
447.451	37
447.712	-34
447.974	-220
448.235	-176
448.497	-42
448.759	-109
449.02	-176
449.282	-182
449.543	-17
449.805	48
450.066	-203
450.328	-87
450.59	103
450.851	-36
451.113	-73
451.374	-154
451.636	-15
451.897	27
452.158	-58
452.42	43
452.681	71
452.943	-122
453.204	-196
453.466	-167
453.727	-77
453.988	-41
454.25	-160
454.511	-186
454.773	-65
455.034	71
455.295	-158
455.557	-162
455.818	-46
456.079	-40
456.341	50
456.602	13
456.863	4
457.124	-66
457.386	-178
457.647	-173
457.908	-65
458.169	28
458.431	-167
458.692	-169
458.953	-65
459.214	-94
459.476	-97
459.737	-8
459.998	29
460.259	-83
460.52	-195
460.781	-126
461.043	39
461.304	-87
461.565	-200
461.826	-150
462.087	-29
462.348	9
462.609	-138
462.87	-77
463.131	-97
463.392	-29
463.653	-98
463.914	-58
464.175	-25
464.436	-84
464.697	-147
464.958	-121
465.219	-20
465.48	-38
465.741	-63
466.002	-122
466.263	-56
466.524	-50
466.785	-144
467.046	-120
467.307	-40
467.568	-102
467.829	-119
468.089	-79
468.35	-21
468.611	-85
468.872	-161
469.133	-48
469.394	22
469.655	59
469.915	-100
470.176	-172
470.437	-126
470.698	-58
470.958	-124
471.219	-176
471.48	-93
471.741	-110
472.001	-180
472.262	-125
472.523	9
472.784	27
473.044	-111
473.305	-72
473.566	43
473.826	1
474.087	-120
474.348	-105
474.608	-42
474.869	-13
475.129	-126
475.39	-134
475.651	-46
475.911	-34
476.172	-175
476.432	-61
476.693	77
476.953	-22
477.214	-34
477.475	-22
477.735	-21
477.996	5
478.256	-179
478.517	-144
478.777	-51
479.038	15
479.298	-5
479.558	-101
479.819	54
480.079	69
480.34	-37
480.6	-112
480.861	-8
481.121	-30
481.381	-145
481.642	-68
481.902	-55
482.162	-122
482.423	-108
482.683	-14
482.943	1
483.204	-82
483.464	-112
483.724	-95
483.985	-48
484.245	-9
484.505	-92
484.765	-27
485.026	45
485.286	27
485.546	-53
485.806	-16
486.067	12
486.327	-105
486.587	-167
486.847	-149
487.107	-35
487.368	-26
487.628	-87
487.888	-102
488.148	-9
488.408	-79
488.668	-73
488.928	-16
489.188	-9
489.449	70
489.709	-100
489.969	-108
490.229	-16
490.489	-33
490.749	-127
491.009	-195
491.269	-96
491.529	-89
491.789	-156
492.049	-67
492.309	57
492.569	-65
492.829	-102
493.089	-108
493.349	43
493.609	-63
493.869	-147
494.129	-70
494.389	61
494.648	-78
494.908	-172
495.168	-77
495.428	40
495.688	-42
495.948	-185
496.208	-172
496.467	-109
496.727	-65
496.987	-74
497.247	-101
497.507	-6
497.767	25
498.026	-161
498.286	-66
498.546	138
498.806	7
499.065	32
499.325	-34
499.585	-29
499.845	-47
500.104	-53
500.364	54
500.624	5
500.883	-63
501.143	-29
501.403	8
501.662	89
501.922	10
502.182	-138
502.441	-142
502.701	-54
502.96	41
503.22	-53
503.48	-98
503.739	-24
503.999	-78
504.258	-153
504.518	-69
504.777	31
505.037	-33
505.296	-96
505.556	-126
505.815	11
506.075	92
506.334	-3
506.594	-156
506.853	-88
507.113	-86
507.372	-225
507.632	-150
507.891	-56
508.151	-15
508.41	-164
508.669	-124
508.929	15
509.188	-48
509.447	-113
509.707	-140
509.966	-50
510.226	-40
510.485	-94
510.744	-70
511.004	-5
511.263	-77
511.522	-151
511.781	-108
512.041	24
512.3	-31
512.559	-18
512.818	13
513.078	7
513.337	-8
513.596	-78
513.855	-98
514.115	24
514.374	-30
514.633	-154
514.892	-157
515.151	-7
515.41	28
515.67	-80
515.929	-119
516.188	-24
516.447	-69
516.706	-134
516.965	-99
517.224	-52
517.483	-67
517.743	-119
518.002	-71
518.261	24
518.52	-40
518.779	-145
519.038	-118
519.297	-74
519.556	-87
519.815	-158
520.074	-150
520.333	-57
520.592	-72
520.851	-157
521.11	-49
521.369	109
521.628	-70
521.887	-152
522.145	-91
522.404	-26
522.663	-42
522.922	-194
523.181	-171
523.44	-33
523.699	-2
523.958	-169
524.217	-138
524.475	-106
524.734	-141
524.993	-169
525.252	-96
525.511	-27
525.769	-92
526.028	-148
526.287	-87
526.546	-33
526.805	-72
527.063	-135
527.322	-162
527.581	-61
527.839	-57
528.098	-75
528.357	-64
528.616	-45
528.874	-60
529.133	-107
529.392	-78
529.65	-14
529.909	-45
530.168	-147
530.426	-125
530.685	13
530.943	-29
531.202	-153
531.461	-136
531.719	10
531.978	-61
532.236	-149
532.495	-61
532.753	-6
533.012	-85
533.271	-166
533.529	-158
533.788	-63
534.046	-160
534.305	-165
534.563	49
534.822	98
535.08	-7
535.338	-111
535.597	-67
535.855	17
536.114	-62
536.372	-157
536.631	-97
536.889	20
537.147	-21
537.406	-179
537.664	-65
537.923	-10
538.181	2
538.439	-138
538.698	-10
538.956	-14
539.214	-41
539.473	-96
539.731	-36
539.989	24
540.248	-60
540.506	-113
540.764	-89
541.022	36
541.281	60
541.539	-70
541.797	-102
542.055	46
542.314	135
542.572	90
542.83	-23
543.088	96
543.346	33
543.604	-42
543.863	70
544.121	209
544.379	139
544.637	55
544.895	214
545.153	350
545.411	224
545.67	92
545.928	204
546.186	417
546.444	524
546.702	493
546.96	615
547.218	767
547.476	797
547.734	825
547.992	1028
548.25	1277
548.508	1373
548.766	1519
549.024	1734
549.282	1993
549.54	2218
549.798	2406
550.056	2595
550.314	2926
550.572	3101
550.83	3121
551.088	3424
551.346	3686
551.603	3759
551.861	3731
552.119	3947
552.377	4111
552.635	4023
552.893	3928
553.151	3966
553.409	4064
553.666	4037
553.924	3939
554.182	3826
554.44	3825
554.698	3774
554.955	3467
555.213	3296
555.471	3203
555.729	2898
555.986	2534
556.244	2433
556.502	2408
556.76	2056
557.017	1769
557.275	1601
557.533	1552
557.79	1331
558.048	974
558.306	914
558.563	880
558.821	676
559.079	558
559.336	496
559.594	462
559.852	317
560.109	227
560.367	281
560.624	285
560.882	220
561.14	165
561.397	243
561.655	142
561.912	136
562.17	13
562.427	57
562.685	98
562.942	84
563.2	-57
563.457	8
563.715	55
563.972	74
564.23	-106
564.487	-128
564.745	0
565.002	43
565.26	-77
565.517	-88
565.774	-5
566.032	-11
566.289	-84
566.547	-58
566.804	41
567.061	-4
567.319	-129
567.576	-51
567.833	89
568.091	132
568.348	-35
568.605	-9
568.863	31
569.12	3
569.377	-96
569.635	-96
569.892	-45
570.149	-73
570.406	-193
570.664	-143
570.921	-1
571.178	-97
571.435	-92
571.693	-67
571.95	9
572.207	-55
572.464	-91
572.721	-12
572.979	87
573.236	12
573.493	-112
573.75	-84
574.007	52
574.264	-37
574.521	-102
574.779	-84
575.036	-2
575.293	-60
575.55	-133
575.807	-103
576.064	6
576.321	-40
576.578	-192
576.835	-144
577.092	66
577.349	-3
577.606	-203
577.863	-127
578.12	-22
578.377	-13
578.634	-216
578.891	-134
579.148	-35
579.405	-107
579.662	-188
579.919	-95
580.176	-59
580.433	-48
580.69	-92
580.947	-91
581.204	-15
581.461	-48
581.717	-141
581.974	32
582.231	33
582.488	-65
582.745	-145
583.002	-130
583.259	21
583.515	-20
583.772	-169
584.029	-115
584.286	25
584.543	-142
584.799	-169
585.056	-95
585.313	7
585.57	51
585.826	-96
586.083	-16
586.34	150
586.597	-53
586.853	-199
587.11	-159
587.367	39
587.623	79
587.88	-40
588.137	-110
588.393	6
588.65	-82
588.907	-175
589.163	-95
589.42	-35
589.677	-8
589.933	-126
590.19	-35
590.446	87
590.703	63
590.96	-181
591.216	-194
591.473	-67
591.729	-59
591.986	-79
592.242	-28
592.499	159
592.755	23
593.012	-185
593.268	-93
593.525	-33
593.781	-12
594.038	-122
594.294	-97
594.551	-36
594.807	-118
595.064	-153
595.32	-151
595.576	-39
595.833	22
596.089	-86
596.346	-21
596.602	32
596.858	69
597.115	-91
597.371	-25
597.628	-8
597.884	-57
598.14	-139
598.397	-12
598.653	85
598.909	-35
599.166	-166
599.422	-107
599.678	13
599.934	-21
600.191	-156
600.447	-106
600.703	-55
600.959	-89
601.216	-210
601.472	-157
601.728	-45
601.984	-101
602.241	-192
602.497	-104
602.753	25
603.009	-67
603.265	-147
603.521	-6
603.778	86
604.034	-104
604.29	-182
604.546	-121
604.802	-30
605.058	-95
605.314	-198
605.571	-133
605.827	-68
606.083	-62
606.339	-171
606.595	-56
606.851	32
607.107	61
607.363	-147
607.619	-125
607.875	80
608.131	24
608.387	-215
608.643	-135
608.899	-51
609.155	-66
609.411	-67
609.667	-45
609.923	-37
610.179	-81
610.435	-248
610.691	-164
610.947	-5
611.203	-83
611.459	-128
611.714	-30
611.97	82
612.226	11
612.482	-169
612.738	-70
612.994	133
613.25	-20
613.505	-149
613.761	-112
614.017	-23
614.273	-57
614.529	-110
614.785	-153
615.04	-46
615.296	-38
615.552	-109
615.808	-79
616.063	5
616.319	-13
616.575	-128
616.831	-89
617.086	121
617.342	61
617.598	-50
617.854	-5
618.109	60
618.365	-101
618.621	-162
618.876	-59
619.132	42
619.388	-4
619.643	-157
619.899	-56
620.155	30
620.41	26
620.666	-119
620.921	-81
621.177	60
621.433	85
621.688	-37
621.944	-118
622.199	-46
622.455	-20
622.71	-124
622.966	-124
623.221	-91
623.477	-71
623.732	-69
623.988	-134
624.243	-2
624.499	1
624.754	-167
625.01	-135
625.265	-31
625.521	51
625.776	-77
626.032	-53
626.287	-12
626.543	-71
626.798	-121
627.053	-49
627.309	-3
627.564	-73
627.82	-72
628.075	13
628.33	1
628.586	-113
628.841	-215
629.096	-105
629.352	-19
629.607	-116
629.862	-152
630.118	-58
630.373	-91
630.628	-46
630.884	-142
631.139	-89
631.394	43
631.649	-28
631.905	-160
632.16	-85
632.415	95
632.67	-44
632.926	-173
633.181	-155
633.436	-25
633.691	-84
633.946	-228
634.202	-181
634.457	-25
634.712	-69
634.967	-165
635.222	-192
635.477	-89
635.733	-94
635.988	-199
636.243	-165
636.498	-7
636.753	-39
637.008	-162
637.263	-81
637.518	-18
637.773	-52
638.028	-108
638.283	-67
638.539	38
638.794	-5
639.049	-153
639.304	-141
639.559	-65
639.814	-91
640.069	-146
640.324	-134
640.579	-24
640.834	-33
641.089	-147
641.344	-90
641.598	112
641.853	6
642.108	-143
642.363	-178
642.618	-33
642.873	-73
643.128	-188
643.383	-123
643.638	-20
643.893	31
644.148	-52
644.402	-135
644.657	-4
644.912	-81
645.167	-112
645.422	-33
645.677	-46
645.931	-4
646.186	0
646.441	-74
646.696	-81
646.951	-92
647.205	-121
647.46	-107
647.715	-67
647.97	79
648.224	208
648.479	-10
648.734	70
648.989	22
649.243	-66
649.498	-94
649.753	-54
650.007	-26
650.262	-90
650.517	-94
650.771	-50
651.026	-104
651.281	-205
651.535	-75
651.79	-52
652.045	-68
652.299	-140
652.554	-136
652.809	-30
653.063	124
653.318	42
653.572	-95
653.827	46
654.081	-31
654.336	-177
654.591	-144
654.845	-26
655.1	-89
655.354	-127
655.609	-76
655.863	26
656.118	0
656.372	-140
656.627	-121
656.881	-10
657.136	-67
657.39	-176
657.645	-51
657.899	94
658.153	-17
658.408	-120
658.662	-55
658.917	-21
659.171	-111
659.426	-181
659.68	-109
659.934	-7
660.189	-26
660.443	-143
660.697	-4
660.952	80
661.206	-50
661.46	-209
661.715	-137
661.969	-18
662.223	-62
662.478	-142
662.732	-82
662.986	-36
663.241	-48
663.495	-192
663.749	-116
664.003	11
664.258	-67
664.512	-144
664.766	-78
665.02	-20
665.275	6
665.529	-165
665.783	-128
666.037	-44
666.291	-80
666.546	-141
666.8	-87
667.054	-93
667.308	-62
667.562	-228
667.816	-137
668.071	-38
668.325	-134
668.579	-153
668.833	-94
669.087	27
669.341	-42
669.595	-169
669.849	-120
670.103	-59
670.357	-57
670.612	-110
670.866	-112
671.12	-47
671.374	-73
671.628	-97
671.882	-131
672.136	-41
672.39	-43
672.644	-211
672.898	-78
673.152	75
673.406	-4
673.66	-96
673.914	-42
674.168	35
674.422	-46
674.675	-141
674.929	-71
675.183	32
675.437	-19
675.691	-90
675.945	-25
676.199	88
676.453	-33
676.707	-168
676.961	-166
677.214	-66
677.468	-70
677.722	-70
677.976	-70
678.23	-10
678.484	-12
678.737	-161
678.991	-102
679.245	-26
679.499	-82
679.753	-150
680.006	-70
680.26	25
680.514	17
680.768	-148
681.021	-53
681.275	-45
681.529	-49
681.783	-114
682.036	-96
682.29	-105
682.544	-69
682.797	-102
683.051	-132
683.305	-84
683.559	-70
683.812	-49
684.066	-54
684.32	-14
684.573	-62
684.827	-67
685.08	-32
685.334	59
685.588	-46
685.841	-163
686.095	-36
686.348	-24
686.602	-20
686.856	-43
687.109	-99
687.363	-54
687.616	-93
687.87	-218
688.123	-161
688.377	-57
688.63	-25
688.884	-27
689.137	79
689.391	78
689.644	-79
689.898	-169
690.151	-151
690.405	-16
690.658	-41
690.912	-90
691.165	-101
691.419	-50
691.672	-9
691.926	-97
692.179	-84
692.432	-18
692.686	-69
692.939	-179
693.193	-122
693.446	35
693.699	-20
693.953	-33
694.206	-65
694.459	17
694.713	45
694.966	-103
695.219	-120
695.473	-37
695.726	-109
695.979	-172
696.233	-66
696.486	0
696.739	-33
696.992	-157
697.246	-26
697.499	40
697.752	-133
698.006	-155
698.259	-49
698.512	-60
698.765	-102
699.018	-122
699.272	-41
699.525	-60
699.778	-121
700.031	-160
700.284	-140
700.538	-30
700.791	-47
701.044	-106
701.297	-78
701.55	-36
701.803	-64
702.056	-180
702.31	-118
702.563	-6
702.816	-95
703.069	-223
703.322	-144
703.575	-32
703.828	-1
704.081	-110
704.334	-124
704.587	-60
704.84	-110
705.093	-122
705.346	3
705.599	-24
705.853	-23
706.106	41
706.359	279
706.612	8
706.865	19
707.118	-154
707.37	-87
707.623	36
707.876	-13
708.129	-39
708.382	33
708.635	111
708.888	-66
709.141	-172
709.394	-57
709.647	35
709.9	-79
710.153	-198
710.406	-87
710.658	19
710.911	-63
711.164	-166
711.417	-132
711.67	-90
711.923	-41
712.176	-146
712.428	-104
712.681	-55
712.934	-15
713.187	-109
713.44	-164
713.692	-36
713.945	-94
714.198	-180
714.451	-191
714.704	-45
714.956	15
715.209	22
715.462	-34
715.715	6
715.967	2
716.22	-154
716.473	-134
716.725	32
716.978	-47
717.231	-59
717.484	-16
717.736	-70
717.989	-137
718.242	-202
718.494	-111
718.747	33
718.999	-39
719.252	-36
719.505	-44
719.757	-25
720.01	-43
720.263	-122
720.515	-102
720.768	-1
721.02	-20
721.273	-145
721.525	-177
721.778	-77
722.031	14
722.283	-141
722.536	-133
722.788	-47
723.041	-84
723.293	-160
723.546	-158
723.798	-40
724.051	25
724.303	-39
724.556	-36
724.808	103
725.061	33
725.313	-86
725.566	-77
725.818	-34
726.071	-69
726.323	-203
726.575	-105
726.828	38
727.08	33
727.333	-148
727.585	-115
727.837	-54
728.09	-35
728.342	-168
728.595	-83
728.847	87
729.099	-133
729.352	-166
729.604	-140
729.856	-32
730.109	-61
730.361	-163
730.613	-68
730.866	42
731.118	-107
731.37	-168
731.622	-137
731.875	-58
732.127	-18
732.379	-77
732.631	4
732.884	12
733.136	-81
733.388	-180
733.64	-122
733.893	24
734.145	-36
734.397	-173
734.649	-157
734.901	-48
735.154	-117
735.406	-206
735.658	-124
735.91	18
736.162	-58
736.414	-167
736.667	-82
736.919	-36
737.171	-121
737.423	-145
737.675	-100
737.927	13
738.179	-54
738.431	-101
738.684	-147
738.936	-73
739.188	-15
739.44	-190
739.692	-181
739.944	-141
740.196	-128
740.448	-178
740.7	-159
740.952	-98
741.204	-95
741.456	-199
741.708	-125
741.96	-104
742.212	-35
742.464	-62
742.716	-171
742.968	-73
743.22	-134
743.472	-197
743.724	-127
743.976	10
744.228	29
744.48	-213
744.732	-183
744.983	-25
745.235	-35
745.487	-103
745.739	-78
745.991	-100
746.243	-23
746.495	-192
746.747	-180
746.999	-68
747.25	-84
747.502	-122
747.754	-24
748.006	-73
748.258	25
748.51	34
748.761	-120
749.013	-41
749.265	23
749.517	8
749.768	43
750.02	52
750.272	-11
750.524	-163
750.776	-198
751.027	-1
751.279	43
751.531	-180
751.782	-91
752.034	27
752.286	-69
752.538	-211
752.789	-103
753.041	-7
753.293	-52
753.544	-124
753.796	-117
754.048	-20
754.299	-28
754.551	-71
754.803	-111
755.054	-95
755.306	-37
755.558	-129
755.809	-114
756.061	43
756.312	-67
756.564	-104
756.816	-77
757.067	-62
757.319	-82
757.57	-118
757.822	-35
758.073	50
758.325	-17
758.577	-176
758.828	-143
759.08	67
759.331	62
759.583	-137
759.834	-30
760.086	-58
760.337	-76
760.589	-147
760.84	-128
761.092	-51
761.343	-72
761.595	-209
761.846	-66
762.097	-28
762.349	-81
762.6	-230
762.852	-95
763.103	50
763.355	-69
763.606	-174
763.857	-21
764.109	91
764.36	-28
764.612	-118
764.863	-23
765.114	3
765.366	-125
765.617	-207
765.868	-157
766.12	4
766.371	16
766.622	-188
766.874	-106
767.125	28
767.376	-108
767.628	-174
767.879	-102
768.13	14
768.381	-18
768.633	-81
768.884	-88
769.135	1
769.386	-14
769.638	-89
769.889	-72
770.14	-29
770.391	-110
770.643	-171
770.894	-176
771.145	-64
771.396	-126
771.647	-201
771.899	-83
772.15	-6
772.401	-52
772.652	-182
772.903	-143
773.154	184
773.406	430
773.657	-108
773.908	-127
774.159	-34
774.41	-34
774.661	-151
774.912	-89
775.163	58
775.414	39
775.666	-194
775.917	-161
776.168	-91
776.419	-82
776.67	-173
776.921	-171
777.172	-79
777.423	-46
777.674	-29
777.925	-48
778.176	-114
778.427	-99
778.678	-171
778.929	-162
779.18	-52
779.431	-120
779.682	-92
779.933	-64
780.184	-62
780.435	-84
780.686	-134
780.937	-84
781.188	-23
781.439	67
781.69	-3
781.941	-78
782.191	-51
782.442	-56
782.693	-138
782.944	-166
783.195	-69
783.446	-45
783.697	-41
783.948	-146
784.199	-111
784.449	-135
784.7	-127
784.951	-103
785.202	51
785.453	16
785.704	-194
785.954	-194
786.205	-101
786.456	-141
786.707	-232
786.958	-191
787.208	-82
787.459	-111
787.71	-105
787.961	-128
788.211	-76
788.462	-78
788.713	-122
788.964	-138
789.214	-36
789.465	-18
789.716	-91
789.967	-95
790.217	-111
790.468	-136
790.719	-191
790.969	-141
791.22	-97
791.471	-37
791.721	-18
791.972	-120
792.223	-50
792.473	-107
792.724	-118
792.975	-142
793.225	-63
793.476	-111
793.726	-176
793.977	-61
794.228	62
794.478	-62
794.729	-145
794.979	-40
795.23	-6
795.481	-61
795.731	-176
795.982	-113
796.232	-111
796.483	-148
796.733	-188
796.984	-132
797.234	-54
797.485	-39
797.735	-184
797.986	-158
798.236	-29
798.487	-90
798.737	-86
798.988	-25
799.238	31
799.489	-90
799.739	-173
799.99	-96
800.24	13
800.491	51
800.741	-93
800.991	-156
801.242	-84
801.492	-70
801.743	-135
801.993	104
802.244	319
802.494	-40
802.744	-90
802.995	-65
803.245	-53
803.495	-76
803.746	-128
803.996	-65
804.246	-54
804.497	-44
804.747	-184
804.997	-107
805.248	-87
805.498	-111
805.748	-92
805.999	-194
806.249	-107
806.499	-109
806.75	-209
807	-176
807.25	-62
807.5	-118
807.751	-122
808.001	-51
808.251	-29
808.501	42
808.752	20
809.002	-49
809.252	-56
809.502	-108
809.752	-144
810.003	-175
810.253	-94
810.503	-62
810.753	-32
811.003	-17
811.254	15
811.504	-61
811.754	-92
812.004	-97
812.254	135
812.504	-15
812.754	-129
813.005	-52
813.255	21
813.505	-54
813.755	-145
814.005	-68
814.255	-64
814.505	-102
814.755	-192
815.005	-171
815.255	-48
815.505	-85
815.756	-41
816.006	-48
816.256	-104
816.506	-159
816.756	-210
817.006	-162
817.256	-69
817.506	-70
817.756	-129
818.006	-99
818.256	-47
818.506	-69
818.756	-176
819.006	-133
819.256	-50
819.506	-105
819.756	-169
820.006	-92
820.255	-16
820.505	-41
820.755	-177
821.005	-124
821.255	-8
821.505	-65
821.755	-147
822.005	-60
822.255	6
822.505	-71
822.755	-69
823.004	-174
823.254	-142
823.504	-79
823.754	-84
824.004	-132
824.254	-41
824.504	-42
824.753	-30
825.003	-29
825.253	35
825.503	-78
825.753	-135
826.002	-43
826.252	153
826.502	-60
826.752	-150
827.002	-117
827.251	-9
827.501	-93
827.751	-168
828.001	-115
828.25	9
828.5	-143
828.75	-174
829	-78
829.249	33
829.499	-112
829.749	-134
829.998	-62
830.248	-36
830.498	-144
830.748	-145
830.997	-78
831.247	1
831.497	-6
831.746	-94
831.996	-3
832.246	106
832.495	105
832.745	-146
832.994	-141
833.244	17
833.494	-90
833.743	-195
833.993	-124
834.243	-41
834.492	-59
834.742	-85
834.991	-104
835.241	75
835.49	-74
835.74	-187
835.99	-112
836.239	-12
836.489	-8
836.738	-120
836.988	-201
837.237	-76
837.487	35
837.736	-78
837.986	-112
838.235	-46
838.485	-95
838.734	-148
838.984	-56
839.233	-59
839.483	-142
839.732	-184
839.982	-103
840.231	-24
840.481	-24
840.73	-145
840.979	-87
841.229	-62
841.478	-83
841.728	-189
841.977	-216
842.227	-144
842.476	-175
842.725	-202
842.975	-147
843.224	-38
843.474	6
843.723	-110
843.972	-110
844.222	-80
844.471	-19
844.72	-116
844.97	-121
845.219	-24
845.468	-21
845.718	-96
845.967	-100
846.216	-41
846.466	8
846.715	-112
846.964	-95
847.214	-105
847.463	-138
847.712	-106
847.961	-142
848.211	-59
848.46	-64
848.709	-126
848.958	-163
849.208	-84
849.457	-92
849.706	-80
849.955	-109
850.205	-120
850.454	11
850.703	42
850.952	-28
851.201	6
851.451	-45
851.7	-48
851.949	-162
852.198	-53
852.447	-81
852.696	-161
852.946	-116
853.195	-13
853.444	-5
853.693	-193
853.942	-191
854.191	-88
854.44	-57
854.689	-96
854.939	-143
855.188	-154
855.437	-120
855.686	-137
855.935	-106
856.184	-53
856.433	3
856.682	-58
856.931	-62
857.18	-33
857.429	-119
857.678	-155
857.927	-98
858.176	-67
858.425	-122
858.674	-192
858.924	-86
859.173	-69
859.422	-38
859.671	-186
859.92	-135
860.169	-79
860.417	-33
860.666	-105
860.915	-147
861.164	-95
861.413	-148
861.662	-190
861.911	-147
862.16	-15
862.409	-50
862.658	-206
862.907	-153
863.156	-47
863.405	-54
863.654	-168
863.903	-196
864.151	-110
864.4	-69
864.649	-115
864.898	-74
865.147	-30
865.396	-5
865.645	-140
865.894	-97
866.142	39
866.391	-69
866.64	-182
866.889	-77
867.138	79
867.387	-35
867.635	-127
867.884	-80
868.133	20
868.382	-65
868.631	-198
868.879	-175
869.128	-57
869.377	-63
869.626	-127
869.874	-119
870.123	-27
870.372	-69
870.621	-189
870.869	-133
871.118	-26
871.367	-58
871.616	-167
871.864	-60
872.113	-39
872.362	-62
872.61	-116
872.859	-64
873.108	13
873.357	-89
873.605	-181
873.854	-153
874.103	-100
874.351	-104
874.6	-122
874.848	-97
875.097	-42
875.346	-37
875.594	-154
875.843	-52
876.092	112
876.34	-23
876.589	-142
876.837	-231
877.086	-129
877.335	-54
877.583	-114
877.832	-56
878.08	81
878.329	-43
878.578	-117
878.826	-99
879.075	-6
879.323	6
879.572	-85
879.82	21
880.069	-37
880.317	-17
880.566	-130
880.814	-45
881.063	78
881.311	-18
881.56	4
881.808	-90
882.057	-24
882.305	-45
882.554	-37
882.802	-125
883.051	-81
883.299	-62
883.548	-114
883.796	-30
884.045	-20
884.293	-90
884.541	-194
884.79	-195
885.038	-92
885.287	-86
885.535	-69
885.783	-45
886.032	-108
886.28	-136
886.529	-178
886.777	-119
887.025	42
887.274	-74
887.522	-142
887.77	-117
888.019	-90
888.267	-120
888.516	-186
888.764	-148
889.012	-51
889.261	-66
889.509	-163
889.757	-147
890.005	-76
890.254	-139
890.502	-129
890.75	99
890.999	109
891.247	0
891.495	-50
891.743	-79
891.992	67
892.24	-45
892.488	-152
892.737	-130
892.985	-37
893.233	-45
893.481	-103
893.729	-119
893.978	36
894.226	48
894.474	-112
894.722	-116
894.97	-78
895.219	-101
895.467	-69
895.715	-33
895.963	-61
896.211	-122
896.46	-213
896.708	-109
896.956	-11
897.204	59
897.452	-35
897.7	-98
897.948	-34
898.197	-76
898.445	-115
898.693	-102
898.941	-42
899.189	-52
899.437	-94
899.685	1
899.933	-74
900.181	-66
900.43	-148
900.678	-115
900.926	-42
901.174	-66
901.422	-108
901.67	-99
901.918	-37
902.166	-63
902.414	-200
902.662	-143
902.91	-40
903.158	-65
903.406	-122
903.654	-100
903.902	-58
904.15	-104
904.398	-202
904.646	-101
904.894	1
905.142	-5
905.39	-57
905.638	-119
905.886	-78
906.134	-95
906.382	-95
906.63	-128
906.878	-47
907.126	-68
907.374	-134
907.622	-120
907.869	-3
908.117	-13
908.365	-93
908.613	-123
908.861	-110
909.109	-152
909.357	-185
909.605	-102
909.853	-12
910.1	-84
910.348	-241
910.596	-184
910.844	-6
911.092	33
911.34	-106
911.588	-93
911.835	-43
912.083	-65
912.331	-74
912.579	-26
912.827	132
913.075	-2
913.322	-136
913.57	-127
913.818	6
914.066	-50
914.313	-128
914.561	-41
914.809	-28
915.057	-85
915.305	-111
915.552	-115
915.8	-21
916.048	-102
916.296	-170
916.543	-57
916.791	34
917.039	-36
917.286	-162
917.534	-135
917.782	-10
918.03	-87
918.277	-194
918.525	-186
918.773	-71
919.02	-80
919.268	-141
919.516	-108
919.763	-104
920.011	-98
920.259	-200
920.506	-81
920.754	9
921.002	-9
921.249	-64
921.497	-96
921.745	-59
921.992	-48
922.24	-183
922.487	-44
922.735	104
922.983	31
923.23	-67
923.478	-121
923.725	-36
923.973	-27
924.221	-51
924.468	-6
924.716	-20
924.963	-47
925.211	-110
925.458	-54
925.706	51
925.953	92
926.201	-107
926.448	-125
926.696	-9
926.944	-51
927.191	-114
927.439	-98
927.686	-67
927.934	-49
928.181	-149
928.429	-161
928.676	-80
928.923	-151
929.171	-180
929.418	-27
929.666	26
929.913	11
930.161	-179
930.408	-150
930.656	-62
930.903	-25
931.151	-151
931.398	-115
931.645	29
931.893	-90
932.14	-130
932.388	-92
932.635	62
932.882	98
933.13	-26
933.377	-105
933.625	-9
933.872	-82
934.119	-142
934.367	-74
934.614	-85
934.861	-110
935.109	-113
935.356	-61
935.603	-5
935.851	-74
936.098	-146
936.345	-34
936.593	-4
936.84	-70
937.087	-200
937.335	-119
937.582	-41
937.829	-35
938.077	-76
938.324	-90
938.571	-12
938.818	-85
939.066	-135
939.313	-149
939.56	-27
939.807	-10
940.055	-127
940.302	-97
940.549	68
940.796	-10
941.044	-71
941.291	-82
941.538	79
941.785	13
942.033	9
942.28	-14
942.527	4
942.774	-28
943.021	-170
943.269	-137
943.516	-20
943.763	-18
944.01	-94
944.257	-10
944.504	67
944.752	5
944.999	-60
945.246	-128
945.493	-47
945.74	-67
945.987	-135
946.234	-44
946.482	52
946.729	-83
946.976	-132
947.223	-106
947.47	42
947.717	-8
947.964	0
948.211	-37
948.458	21
948.705	-42
948.952	-134
949.2	-62
949.447	49
949.694	46
949.941	-102
950.188	-109
950.435	-79
950.682	-52
950.929	-184
951.176	-124
951.423	40
951.67	21
951.917	-33
952.164	-48
952.411	15
952.658	76
952.905	-63
953.152	-135
953.399	-5
953.646	-14
953.893	-122
954.14	-76
954.387	-43
954.634	-51
954.881	-112
955.128	-62
955.375	-60
955.622	-57
955.869	-57
956.115	-86
956.362	-7
956.609	-24
956.856	-107
957.103	-106
957.35	3
957.597	12
957.844	-54
958.091	-78
958.338	10
958.585	-42
958.831	-226
959.078	-143
959.325	24
959.572	-89
959.819	-169
960.066	-198
960.313	-49
960.559	-82
960.806	-215
961.053	-153
961.3	16
961.547	41
961.794	-162
962.04	-4
962.287	30
962.534	-117
962.781	-128
963.028	-34
963.274	65
963.521	-47
963.768	-121
964.015	-81
964.262	82
964.508	-70
964.755	-156
965.002	-143
965.249	-100
965.495	-140
965.742	-166
965.989	-149
966.236	-33
966.482	-102
966.729	-148
966.976	-164
967.222	-90
967.469	-86
967.716	-146
967.963	-137
968.209	-61
968.456	-87
968.703	-185
968.949	-97
969.196	73
969.443	78
969.689	-152
969.936	-177
970.183	-84
970.429	-138
970.676	-180
970.923	-96
971.169	-30
971.416	-113
971.663	-144
971.909	-98
972.156	-29
972.402	-32
972.649	-99
972.896	-61
973.142	-42
973.389	-51
973.635	-141
973.882	-14
974.129	43
974.375	-85
974.622	-161
974.868	-149
975.115	-61
975.361	-110
975.608	-123
975.855	-17
976.101	-5
976.348	-78
976.594	-129
976.841	-68
977.087	-52
977.334	-39
977.58	-188
977.827	-173
978.073	-24
978.32	-43
978.566	-169
978.813	-85
979.059	-57
979.306	-70
979.552	-163
979.799	-88
980.045	-79
980.292	-76
980.538	-139
980.785	-134
981.031	-118
981.278	-133
981.524	-195
981.771	-30
982.017	87
982.263	-20
982.51	-150
982.756	-78
983.003	-6
983.249	-64
983.495	-144
983.742	-154
983.988	-76
984.235	-49
984.481	-158
984.727	-156
984.974	-13
985.22	-11
985.467	-107
985.713	-99
985.959	13
986.206	-24
986.452	-113
986.698	-58
986.945	-40
987.191	1
987.437	-6
987.684	-50
987.93	107
988.176	12
988.423	-176
988.669	-88
988.915	81
989.162	-67
989.408	-174
989.654	-97
989.901	-69
990.147	-77
990.393	-69
990.639	-10
990.886	12
991.132	74
991.378	14
991.625	129
991.871	90
992.117	3
992.363	-67
992.61	-30
992.856	63
993.102	-67
993.348	-133
993.594	-100
993.841	-58
994.087	76
994.333	-42
994.579	-56
994.826	-25
995.072	-30
995.318	-212
995.564	-150
995.81	-20
996.057	-60
996.303	-169
996.549	-140
996.795	-45
997.041	-69
997.287	-111
997.534	-117
997.78	-66
998.026	-50
998.272	-153
998.518	-171
998.764	-26
999.01	3
999.256	-84
999.503	-117
999.749	-116
999.995	-148
1000.241	-157
1000.487	-82
1000.733	-30
1000.979	-74
1001.225	-110
1001.471	-66
1001.718	-23
1001.964	30
1002.21	-150
1002.456	-116
1002.702	48
1002.948	-45
1003.194	-133
1003.44	-148
1003.686	-52
1003.932	-99
1004.178	-158
1004.424	-90
1004.67	48
1004.916	39
1005.162	-68
1005.408	-133
1005.654	10
1005.9	-137
1006.146	-198
1006.392	-125
1006.638	-41
1006.884	-81
1007.13	-162
1007.376	-190
1007.622	-1
1007.868	26
1008.114	-115
1008.36	-49
1008.606	-4
1008.852	6
1009.098	-63
1009.344	-20
1009.59	-36
1009.836	-172
1010.082	-222
1010.328	-127
1010.574	-48
1010.82	-143
1011.065	-215
1011.311	-195
1011.557	-66
1011.803	-100
1012.049	-175
1012.295	-110
1012.541	-70
1012.787	-61
1013.033	-211
1013.278	-223
1013.524	-69
1013.77	7
1014.016	-101
1014.262	-101
1014.508	14
1014.754	-139
1015	-149
1015.245	8
1015.491	15
1015.737	-30
1015.983	-172
1016.229	-201
1016.475	-74
1016.72	74
1016.966	90
1017.212	-48
1017.458	21
1017.704	-52
1017.949	-175
1018.195	-16
1018.441	89
1018.687	38
1018.933	-120
1019.178	-121
1019.424	32
1019.67	64
1019.916	-141
1020.161	-98
1020.407	-40
1020.653	-87
1020.899	-156
1021.144	-90
1021.39	-14
1021.636	-124
1021.882	-196
1022.127	-72
1022.373	64
1022.619	-9
1022.865	-97
1023.11	-94
1023.356	25
1023.602	-41
1023.847	-93
1024.093	-46
1024.339	-79
1024.584	-110
1024.83	-127
1025.076	-113
1025.321	18
1025.567	-19
1025.813	-128
1026.058	-42
1026.304	7
1026.55	-73
1026.795	-102
1027.041	-78
1027.287	-20
1027.532	-2
1027.778	-48
1028.024	-74
1028.269	-31
1028.515	-116
1028.76	-158
1029.006	-82
1029.252	23
1029.497	-61
1029.743	-74
1029.989	-134
1030.234	5
1030.48	76
1030.725	-121
1030.971	-81
1031.216	36
1031.462	-48
1031.708	-183
1031.953	-143
1032.199	-41
1032.444	-30
1032.69	-80
1032.935	-94
1033.181	32
1033.426	-84
1033.672	-219
1033.918	-164
1034.163	-62
1034.409	-77
1034.654	-132
1034.9	-53
1035.145	5
1035.391	-72
1035.636	-175
1035.882	-72
1036.127	-80
1036.373	-121
1036.618	-223
1036.864	-114
1037.109	13
1037.355	-82
1037.6	-135
1037.845	-94
1038.091	86
1038.336	66
1038.582	77
1038.827	147
1039.073	-12
1039.318	-101
1039.564	-197
1039.809	-134
1040.055	52
1040.3	65
1040.545	-113
1040.791	-113
1041.036	-59
1041.282	-28
1041.527	27
1041.772	-145
1042.018	-76
1042.263	-38
1042.509	-185
1042.754	-162
1042.999	-31
1043.245	-46
1043.49	-219
1043.736	-137
1043.981	-48
1044.226	-42
1044.472	-49
1044.717	-56
1044.962	46
1045.208	-34
1045.453	-260
1045.698	-173
1045.944	27
1046.189	-8
1046.434	-98
1046.68	-90
1046.925	71
1047.17	-81
1047.416	-239
1047.661	-136
1047.906	-2
1048.152	-8
1048.397	-90
1048.642	-116
1048.887	71
1049.133	68
1049.378	-95
1049.623	-111
1049.869	9
1050.114	-66
1050.359	-136
1050.604	-64
1050.85	92
1051.095	-52
1051.34	-142
1051.585	-69
1051.831	100
1052.076	-53
1052.321	-245
1052.566	-142
1052.812	51
1053.057	-25
1053.302	-116
1053.547	-21
1053.792	19
1054.038	3
1054.283	-169
1054.528	-90
1054.773	-32
1055.018	-36
1055.264	-130
1055.509	-157
1055.754	-36
1055.999	-92
1056.244	-192
1056.49	-96
1056.735	-7
1056.98	-77
1057.225	-168
1057.47	23
1057.715	-53
1057.96	-131
1058.206	-170
1058.451	-65
1058.696	59
1058.941	-9
1059.186	-170
1059.431	-132
1059.676	66
1059.922	-1
1060.167	85
1060.412	260
1060.657	27
1060.902	-24
1061.147	-204
1061.392	-122
1061.637	19
1061.882	-64
1062.127	-200
1062.373	-184
1062.618	78
1062.863	105
1063.108	-95
1063.353	-150
1063.598	-62
1063.843	-74
1064.088	-155
1064.333	-164
1064.578	-1
1064.823	18
1065.068	-213
1065.313	-146
1065.558	20
1065.803	5
1066.048	-191
1066.293	-169
1066.538	53
1066.783	-30
1067.028	-200
1067.273	-181
1067.518	-6
1067.763	-58
1068.008	-225
1068.253	-150
1068.498	26
1068.743	-36
1068.988	-173
1069.233	-170
1069.478	29
1069.723	94
1069.968	-116
1070.213	-83
1070.458	45
1070.703	-53
1070.948	-246
1071.193	-120
1071.438	25
1071.683	43
1071.928	-77
1072.173	-89
1072.418	2
1072.663	-49
1072.908	-189
1073.152	-116
1073.397	44
1073.642	-76
1073.887	-129
1074.132	15
1074.377	0
1074.622	-35
1074.867	-158
1075.112	-76
1075.357	103
1075.601	-55
1075.846	-117
1076.091	-11
1076.336	44
1076.581	-95
1076.826	-191
1077.071	-99
1077.315	165
1077.56	88
1077.805	-151
1078.05	-101
1078.295	-36
1078.54	-65
1078.785	-190
1079.029	-132
1079.274	25
1079.519	-101
1079.764	-195
1080.009	-77
1080.253	11
1080.498	-90
1080.743	-233
1080.988	-92
1081.233	132
1081.478	61
1081.722	-150
1081.967	-50
1082.212	110
1082.457	11
1082.701	-139
1082.946	-113
1083.191	19
1083.436	-84
1083.681	-225
1083.925	-117
1084.17	-20
1084.415	7
1084.66	-198
1084.904	-99
1085.149	-6
1085.394	-54
1085.639	-237
1085.883	-132
1086.128	134
1086.373	144
1086.617	-95
1086.862	-157
1087.107	-37
1087.352	-86
1087.596	-165
1087.841	-22
1088.086	12
1088.33	2
1088.575	-241
1088.82	-107
1089.064	56
1089.309	-95
1089.554	-208
1089.798	-168
1090.043	23
1090.288	-32
1090.533	-222
1090.777	-138
1091.022	8
1091.266	43
1091.511	-113
1091.756	-35
1092	102
1092.245	67
1092.49	-173
1092.734	-108
1092.979	76
1093.224	-39
1093.468	-189
1093.713	-145
1093.957	10
1094.202	-54
1094.447	-231
1094.691	-103
1094.936	38
1095.181	-16
1095.425	-176
1095.67	-136
1095.914	14
1096.159	-7
1096.403	-164
1096.648	-85
1096.893	48
1097.137	-98
1097.382	-248
1097.626	-161
1097.871	6
1098.115	-41
1098.36	-209
1098.605	-99
1098.849	-35
1099.094	-113
1099.338	-194
1099.583	-103
1099.827	120
1100.072	23
1100.316	-169
1100.561	-104
1100.805	61
1101.05	24
1101.294	-200
1101.539	-174
1101.783	-13
1102.028	-14
1102.273	-156
1102.517	-74
1102.761	67
1103.006	-54
1103.25	-271
1103.495	-170
1103.739	50
1103.984	102
1104.228	-102
1104.473	-40
1104.717	29
1104.962	-6
1105.206	-118
1105.451	-165
1105.695	19
1105.94	-13
1106.184	-149
1106.429	-109
1106.673	-7
1106.917	54
1107.162	-160
1107.406	-9
1107.651	136
1107.895	-83
1108.14	-195
1108.384	-103
1108.628	124
1108.873	106
1109.117	-142
1109.362	-116
1109.606	-27
1109.85	-25
1110.095	-161
1110.339	-100
1110.584	88
1110.828	45
1111.072	-73
1111.317	-121
1111.561	-21
1111.806	-34
1112.05	-176
1112.294	-87
1112.539	24
1112.783	-21
1113.027	-130
1113.272	-119
1113.516	-36
1113.76	-57
1114.005	-154
1114.249	-88
1114.493	62
1114.738	109
1114.982	-38
1115.226	-81
1115.471	-6
1115.715	-20
1115.959	-204
1116.204	-181
1116.448	6
1116.692	-86
1116.937	-179
1117.181	1
1117.425	-8
1117.67	-86
1117.914	-152
1118.158	-93
1118.402	139
1118.647	70
1118.891	-90
1119.135	-37
1119.38	98
1119.624	26
1119.868	-126
1120.112	-145
1120.357	-60
1120.601	-118
1120.845	-213
1121.089	-137
1121.334	33
