Data from HR4C21111__43__10-14-51-652.txt Node

Date: Mon Feb 22 10:14:51 IST 2021
User: Kapil
Spectrometer: HR4C2111
Trigger mode: 4
Integration Time (sec): 2.300000E0
Scans to average: 1
Electric dark correction enabled: true
Nonlinearity correction enabled: false
Boxcar width: 0
XAxis mode: Wavelengths
Number of Pixels in Spectrum: 3648
>>>>>Begin Spectral Data<<<<<
189.472	-442
189.745	-442
190.017	-442
190.289	-461
190.561	-303
190.834	-13
191.106	-120
191.378	11
191.65	12
191.923	-133
192.195	-87
192.467	140
192.739	105
193.011	-39
193.284	77
193.556	165
193.828	-25
194.1	-93
194.372	-117
194.644	43
194.916	41
195.188	-177
195.46	-100
195.732	31
196.004	-42
196.276	-122
196.548	-80
196.82	50
197.092	46
197.364	-142
197.636	-105
197.908	2
198.18	-65
198.452	-107
198.724	-65
198.996	44
199.268	67
199.54	-31
199.811	-135
200.083	79
200.355	10
200.627	-195
200.899	-58
201.171	47
201.442	-72
201.714	-195
201.986	-101
202.258	62
202.529	95
202.801	-18
203.073	70
203.345	169
203.616	1
203.888	-155
204.16	-160
204.431	71
204.703	-14
204.974	-166
205.246	-17
205.518	164
205.789	8
206.061	-123
206.332	-99
206.604	25
206.876	99
207.147	125
207.419	20
207.69	133
207.962	-41
208.233	-186
208.505	7
208.776	182
209.047	85
209.319	-133
209.59	-92
209.862	146
210.133	43
210.404	-159
210.676	-123
210.947	47
211.219	55
211.49	-123
211.761	-51
212.033	14
212.304	-46
212.575	-194
212.846	-98
213.118	10
213.389	-61
213.66	-106
213.931	-47
214.203	26
214.474	-44
214.745	-120
215.016	145
215.287	454
215.559	60
215.83	-121
216.101	-69
216.372	-13
216.643	68
216.914	3
217.185	-95
217.456	146
217.727	-1
217.998	-183
218.269	-74
218.54	36
218.811	-29
219.082	-127
219.353	-88
219.624	-13
219.895	-33
220.166	-149
220.437	-122
220.708	87
220.979	-16
221.25	-150
221.521	-84
221.792	30
222.063	76
222.334	24
222.604	154
222.875	166
223.146	86
223.417	-188
223.688	-38
223.958	120
224.229	-60
224.5	-206
224.771	-106
225.041	72
225.312	34
225.583	-102
225.854	-71
226.124	71
226.395	-17
226.666	-126
226.936	-106
227.207	64
227.478	-59
227.748	-104
228.019	43
228.289	242
228.56	-29
228.831	-42
229.101	34
229.372	34
229.642	-43
229.913	-187
230.183	-145
230.454	-24
230.724	0
230.995	-106
231.265	-75
231.536	67
231.806	39
232.076	-120
232.347	-131
232.617	21
232.888	12
233.158	-63
233.428	-131
233.699	-19
233.969	-62
234.239	-177
234.51	-99
234.78	50
235.05	-28
235.321	-137
235.591	-78
235.861	65
236.131	-54
236.402	-192
236.672	-91
236.942	42
237.212	42
237.483	-73
237.753	-4
238.023	162
238.293	19
238.563	-80
238.833	-115
239.103	64
239.374	-30
239.644	-134
239.914	-37
240.184	130
240.454	5
240.724	-161
240.994	-68
241.264	22
241.534	66
241.804	-11
242.074	-94
242.344	-44
242.614	-61
242.884	-179
243.154	-141
243.424	35
243.694	66
243.964	-105
244.234	-85
244.503	125
244.773	11
245.043	-223
245.313	-149
245.583	109
245.853	81
246.123	-186
246.392	-118
246.662	-15
246.932	-44
247.202	-190
247.471	-81
247.741	244
248.011	93
248.281	-160
248.55	-95
248.82	63
249.09	-10
249.359	-90
249.629	-82
249.899	46
250.168	52
250.438	-23
250.708	-108
250.977	70
251.247	50
251.516	-108
251.786	-50
252.055	119
252.325	0
252.595	-110
252.864	-65
253.134	50
253.403	-30
253.673	-168
253.942	-115
254.212	38
254.481	-1
254.75	-135
255.02	-87
255.289	62
255.559	-22
255.828	-145
256.097	-51
256.367	16
256.636	-84
256.906	-162
257.175	-22
257.444	242
257.714	57
257.983	-84
258.252	-39
258.521	5
258.791	44
259.06	-105
259.329	-55
259.598	63
259.868	-19
260.137	-136
260.406	-33
260.675	85
260.944	11
261.214	-154
261.483	-74
261.752	166
262.021	2
262.29	-185
262.559	-131
262.828	7
263.097	-55
263.366	-236
263.635	-111
263.905	112
264.174	7
264.443	-222
264.712	-118
264.981	28
265.25	-65
265.519	-168
265.788	-156
266.057	28
266.325	48
266.594	-59
266.863	-131
267.132	12
267.401	-14
267.67	-192
267.939	-159
268.208	24
268.477	61
268.745	-146
269.014	-122
269.283	108
269.552	23
269.821	-126
270.089	-16
270.358	-9
270.627	-44
270.896	-153
271.164	-175
271.433	-5
271.702	75
271.971	-158
272.239	-138
272.508	11
272.777	-53
273.045	-34
273.314	-45
273.583	80
273.851	-30
274.12	-178
274.388	-155
274.657	-24
274.926	-34
275.194	-165
275.463	-66
275.731	24
276	162
276.268	341
276.537	-89
276.805	23
277.074	35
277.342	-186
277.611	-105
277.879	100
278.148	35
278.416	-145
278.684	-122
278.953	-39
279.221	-48
279.49	-212
279.758	-105
280.026	-21
280.295	-14
280.563	-138
280.831	741
281.1	1886
281.368	171
281.636	-115
281.904	-135
282.173	-23
282.441	-73
282.709	-98
282.977	21
283.246	34
283.514	-56
283.782	-78
284.05	12
284.318	50
284.587	-37
284.855	-149
285.123	-74
285.391	55
285.659	21
285.927	-163
286.195	-73
286.463	51
286.732	-18
287	-126
287.268	-72
287.536	9
287.804	-47
288.072	-149
288.34	-96
288.608	55
288.876	-43
289.144	-135
289.412	-28
289.68	34
289.948	-36
290.215	-139
290.483	-113
290.751	95
291.019	97
291.287	-171
291.555	-135
291.823	3
292.091	-43
292.358	-95
292.626	-29
292.894	76
293.162	34
293.43	-127
293.697	-104
293.965	41
294.233	-50
294.501	-172
294.768	-81
295.036	54
295.304	22
295.572	-153
295.839	-98
296.107	108
296.375	-3
296.642	-135
296.91	-122
297.178	35
297.445	165
297.713	92
297.98	-98
298.248	-45
298.516	-62
298.783	-123
299.051	-129
299.318	-8
299.586	-59
299.853	-105
300.121	-105
300.388	21
300.656	-37
300.923	-177
301.191	-65
301.458	35
301.726	-24
301.993	-156
302.26	-103
302.528	31
302.795	-14
303.063	-87
303.33	-66
303.597	4
303.865	-13
304.132	-164
304.399	-153
304.667	-45
304.934	6
305.201	-126
305.469	-36
305.736	62
306.003	31
306.27	-70
306.538	-114
306.805	-19
307.072	-51
307.339	-102
307.606	-53
307.874	149
308.141	30
308.408	-154
308.675	-127
308.942	-70
309.209	-81
309.477	-147
309.744	-111
310.011	2
310.278	11
310.545	-37
310.812	-57
311.079	114
311.346	165
311.613	29
311.88	-50
312.147	-74
312.414	-66
312.681	-132
312.948	-53
313.215	106
313.482	76
313.749	-103
314.016	-199
314.283	-65
314.55	36
314.817	-109
315.083	-138
315.35	-97
315.617	-164
315.884	-166
316.151	35
316.418	156
316.684	-37
316.951	-196
317.218	-119
317.485	-26
317.752	-87
318.018	-137
318.285	-34
318.552	-1
318.819	-81
319.085	-149
319.352	-57
319.619	38
319.885	-48
320.152	-218
320.419	-118
320.685	14
320.952	-36
321.219	-75
321.485	55
321.752	-2
322.019	-56
322.285	25
322.552	-11
322.818	106
323.085	-42
323.351	-157
323.618	-37
323.884	33
324.151	-82
324.417	-45
324.684	-89
324.95	-66
325.217	-167
325.483	-198
325.75	-41
326.016	-10
326.283	-48
326.549	-206
326.815	-86
327.082	90
327.348	-4
327.615	-124
327.881	-40
328.147	91
328.414	118
328.68	2
328.946	-55
329.212	10
329.479	-13
329.745	-126
330.011	-115
330.278	11
330.544	-49
330.81	-35
331.076	-57
331.342	-51
331.609	-42
331.875	-109
332.141	-115
332.407	7
332.673	-22
332.94	-33
333.206	-51
333.472	40
333.738	58
334.004	-128
334.27	-33
334.536	-20
334.802	-70
335.068	-140
335.334	-29
335.6	8
335.866	-41
336.132	-173
336.398	-110
336.664	-41
336.93	-50
337.196	-86
337.462	-23
337.728	32
337.994	-54
338.26	-103
338.526	-55
338.792	-76
339.058	-73
339.324	-157
339.59	-41
339.856	24
340.121	-85
340.387	-140
340.653	78
340.919	144
341.185	44
341.45	-91
341.716	10
341.982	89
342.248	-85
342.514	-114
342.779	-23
343.045	17
343.311	-23
343.576	-112
343.842	-60
344.108	107
344.374	6
344.639	-139
344.905	-115
345.171	19
345.436	-102
345.702	-147
345.967	11
346.233	65
346.499	5
346.764	-208
347.03	-101
347.295	-54
347.561	-22
347.826	-69
348.092	-138
348.357	-39
348.623	-43
348.888	-142
349.154	-110
349.419	21
349.685	-28
349.95	-99
350.216	-67
350.481	10
350.747	-86
351.012	-212
351.277	-147
351.543	-4
351.808	-45
352.074	-201
352.339	-150
352.604	7
352.87	-22
353.135	-140
353.4	-105
353.666	-51
353.931	-53
354.196	-183
354.461	-162
354.727	-8
354.992	-28
355.257	-166
355.522	-65
355.788	-39
356.053	11
356.318	-138
356.583	-141
356.848	49
357.113	135
357.379	-105
357.644	-130
357.909	46
358.174	56
358.439	-182
358.704	-104
358.969	13
359.234	25
359.499	-152
359.765	-97
360.03	15
360.295	10
360.56	-154
360.825	-89
361.09	119
361.355	-66
361.62	-111
361.885	-76
362.15	-95
362.415	-76
362.679	-145
362.944	-4
363.209	11
363.474	30
363.739	-42
364.004	-141
364.269	-75
364.534	-34
364.799	-81
365.063	-60
365.328	27
365.593	31
365.858	-119
366.123	-116
366.387	13
366.652	-59
366.917	-179
367.182	-108
367.447	54
367.711	-4
367.976	-81
368.241	-17
368.505	43
368.77	-58
369.035	-76
369.299	-34
369.564	-1
369.829	-84
370.093	-125
370.358	-132
370.623	-19
370.887	0
371.152	-166
371.416	-99
371.681	-63
371.946	-142
372.21	-177
372.475	-35
372.739	-6
373.004	-78
373.268	-107
373.533	-65
373.797	-16
374.062	-19
374.326	-168
374.591	-91
374.855	-7
375.12	-81
375.384	-248
375.648	-152
375.913	-10
376.177	6
376.442	-134
376.706	-122
376.97	9
377.235	-31
377.499	-84
377.763	-76
378.028	-90
378.292	-42
378.556	-113
378.821	-191
379.085	-110
379.349	-190
379.614	-253
379.878	-128
380.142	47
380.406	-51
380.671	-62
380.935	74
381.199	173
381.463	42
381.727	-27
381.991	-58
382.256	-14
382.52	-66
382.784	-45
383.048	69
383.312	-14
383.576	-62
383.84	-177
384.104	-106
384.369	-15
384.633	-132
384.897	-227
385.161	-119
385.425	2
385.689	-74
385.953	-149
386.217	-166
386.481	-64
386.745	-43
387.009	-75
387.273	-126
387.537	-85
387.801	-69
388.064	-136
388.328	-41
388.592	3
388.856	-64
389.12	-143
389.384	-70
389.648	-26
389.912	33
390.176	4
390.439	97
390.703	-81
390.967	-98
391.231	-189
391.495	-135
391.758	-77
392.022	-62
392.286	-182
392.55	-152
392.813	-39
393.077	6
393.341	-89
393.605	-9
393.868	-49
394.132	-69
394.396	-90
394.659	34
394.923	-40
395.187	-101
395.45	-100
395.714	-53
395.978	-45
396.241	-41
396.505	-110
396.768	-70
397.032	-9
397.295	-3
397.559	-93
397.823	-117
398.086	8
398.35	-57
398.613	-176
398.877	-43
399.14	72
399.404	80
399.667	-26
399.931	-112
400.194	-17
400.457	-49
400.721	-95
400.984	6
401.248	-35
401.511	-74
401.775	-198
402.038	-142
402.301	61
402.565	2
402.828	-199
403.091	-126
403.355	-21
403.618	-21
403.881	-24
404.145	-58
404.408	-7
404.671	-50
404.934	-47
405.198	-10
405.461	-4
405.724	7
405.987	-31
406.251	6
406.514	97
406.777	-48
407.04	-146
407.303	-155
407.567	-3
407.83	59
408.093	-142
408.356	-34
408.619	37
408.882	83
409.145	-36
409.408	-70
409.672	12
409.935	-45
410.198	-167
410.461	-80
410.724	73
410.987	-16
411.25	-156
411.513	-35
411.776	40
412.039	-94
412.302	-148
412.565	-119
412.828	-67
413.091	-89
413.354	-167
413.617	-125
413.879	-51
414.142	-33
414.405	-155
414.668	-73
414.931	28
415.194	-11
415.457	-162
415.72	-65
415.983	-11
416.245	-41
416.508	-133
416.771	-169
417.034	-10
417.297	8
417.559	-33
417.822	-77
418.085	-8
418.348	-8
418.61	-157
418.873	-150
419.136	-93
419.399	-115
419.661	-91
419.924	-120
420.187	-36
420.449	-50
420.712	-124
420.975	-164
421.237	-40
421.5	-49
421.762	-20
422.025	14
422.288	54
422.55	-132
422.813	-213
423.075	-125
423.338	-39
423.601	-3
423.863	-77
424.126	-67
424.388	36
424.651	-28
424.913	-71
425.176	-86
425.438	-61
425.701	3
425.963	-134
426.225	-187
426.488	-88
426.75	-91
427.013	-141
427.275	-94
427.538	-82
427.8	-83
428.062	-166
428.325	-86
428.587	18
428.849	-37
429.112	-113
429.374	-136
429.636	-60
429.899	11
430.161	-117
430.423	-88
430.686	4
430.948	-14
431.21	-139
431.472	-155
431.735	-74
431.997	-100
432.259	-69
432.521	-126
432.783	-30
433.046	-54
433.308	-155
433.57	-95
433.832	126
434.094	-84
434.356	-193
434.618	-116
434.881	-36
435.143	-83
435.405	-75
435.667	-53
435.929	-30
436.191	-72
436.453	-161
436.715	-89
436.977	-1
437.239	-43
437.501	-173
437.763	-159
438.025	-5
438.287	-28
438.549	-127
438.811	-92
439.073	-46
439.335	-126
439.597	-135
439.859	-42
440.121	56
440.383	-125
440.645	-136
440.907	-65
441.168	-12
441.43	-67
441.692	-169
441.954	-133
442.216	-57
442.478	-92
442.74	-188
443.001	-71
443.263	68
443.525	0
443.787	-132
444.048	-104
444.31	-80
444.572	-96
444.834	-128
445.095	-124
445.357	1
445.619	-35
445.881	-231
446.142	-135
446.404	-74
446.666	-74
446.927	-140
447.189	-8
447.451	43
447.712	-26
447.974	-233
448.235	-188
448.497	-48
448.759	-127
449.02	-176
449.282	-187
449.543	-34
449.805	26
450.066	-204
450.328	-89
450.59	108
450.851	-46
451.113	-84
451.374	-153
451.636	-5
451.897	15
452.158	-80
452.42	8
452.681	49
452.943	-121
453.204	-210
453.466	-191
453.727	-100
453.988	-49
454.25	-178
454.511	-204
454.773	-85
455.034	58
455.295	-164
455.557	-165
455.818	-51
456.079	-55
456.341	24
456.602	12
456.863	11
457.124	-64
457.386	-199
457.647	-187
457.908	-71
458.169	6
458.431	-183
458.692	-190
458.953	-81
459.214	-109
459.476	-104
459.737	-30
459.998	14
460.259	-70
460.52	-178
460.781	-140
461.043	20
461.304	-87
461.565	-187
461.826	-153
462.087	-58
462.348	-22
462.609	-154
462.87	-73
463.131	-100
463.392	-25
463.653	-113
463.914	-90
464.175	-42
464.436	-93
464.697	-163
464.958	-146
465.219	-41
465.48	-44
465.741	-71
466.002	-121
466.263	-68
466.524	-74
466.785	-163
467.046	-123
467.307	-48
467.568	-124
467.829	-135
468.089	-88
468.35	-28
468.611	-86
468.872	-176
469.133	-66
469.394	14
469.655	59
469.915	-122
470.176	-185
470.437	-145
470.698	-69
470.958	-135
471.219	-187
471.48	-100
471.741	-112
472.001	-194
472.262	-139
472.523	-2
472.784	34
473.044	-117
473.305	-79
473.566	23
473.826	-8
474.087	-138
474.348	-123
474.608	-58
474.869	-12
475.129	-124
475.39	-167
475.651	-80
475.911	-42
476.172	-166
476.432	-66
476.693	78
476.953	-37
477.214	-54
477.475	-25
477.735	-30
477.996	-21
478.256	-203
478.517	-171
478.777	-75
479.038	1
479.298	-17
479.558	-101
479.819	44
480.079	60
480.34	-33
480.6	-125
480.861	-28
481.121	-55
481.381	-161
481.642	-80
481.902	-60
482.162	-121
482.423	-108
482.683	-21
482.943	0
483.204	-90
483.464	-109
483.724	-87
483.985	-43
484.245	9
484.505	-82
484.765	-14
485.026	66
485.286	41
485.546	-63
485.806	-13
486.067	-1
486.327	-120
486.587	-180
486.847	-156
487.107	-40
487.368	-38
487.628	-109
487.888	-92
488.148	0
488.408	-85
488.668	-77
488.928	-42
489.188	-35
489.449	67
489.709	-99
489.969	-101
490.229	-5
490.489	-37
490.749	-124
491.009	-191
491.269	-98
491.529	-94
491.789	-169
492.049	-73
492.309	40
492.569	-89
492.829	-120
493.089	-115
493.349	42
493.609	-60
493.869	-154
494.129	-73
494.389	36
494.648	-89
494.908	-181
495.168	-88
495.428	47
495.688	-46
495.948	-219
496.208	-178
496.467	-107
496.727	-70
496.987	-90
497.247	-98
497.507	-15
497.767	21
498.026	-162
498.286	-76
498.546	127
498.806	10
499.065	37
499.325	-50
499.585	-43
499.845	-50
500.104	-52
500.364	53
500.624	-1
500.883	-75
501.143	-50
501.403	2
501.662	82
501.922	-10
502.182	-147
502.441	-150
502.701	-92
502.96	6
503.22	-72
503.48	-94
503.739	-12
503.999	-66
504.258	-162
504.518	-81
504.777	15
505.037	-43
505.296	-99
505.556	-111
505.815	26
506.075	90
506.334	-24
506.594	-166
506.853	-100
507.113	-95
507.372	-221
507.632	-156
507.891	-66
508.151	-15
508.41	-171
508.669	-120
508.929	18
509.188	-61
509.447	-123
509.707	-151
509.966	-59
510.226	-44
510.485	-91
510.744	-82
511.004	13
511.263	-95
511.522	-171
511.781	-121
512.041	15
512.3	-54
512.559	-26
512.818	9
513.078	6
513.337	-22
513.596	-96
513.855	-101
514.115	11
514.374	-48
514.633	-152
514.892	-173
515.151	-29
515.41	17
515.67	-96
515.929	-143
516.188	-43
516.447	-59
516.706	-135
516.965	-110
517.224	-68
517.483	-70
517.743	-125
518.002	-71
518.261	28
518.52	-32
518.779	-147
519.038	-121
519.297	-79
519.556	-87
519.815	-172
520.074	-165
520.333	-71
520.592	-93
520.851	-175
521.11	-68
521.369	81
521.628	-89
521.887	-167
522.145	-104
522.404	-39
522.663	-46
522.922	-196
523.181	-189
523.44	-47
523.699	-18
523.958	-184
524.217	-155
524.475	-109
524.734	-166
524.993	-187
525.252	-112
525.511	-39
525.769	-93
526.028	-161
526.287	-102
526.546	-28
526.805	-52
527.063	-150
527.322	-184
527.581	-78
527.839	-53
528.098	-62
528.357	-74
528.616	-50
528.874	-68
529.133	-124
529.392	-73
529.65	-25
529.909	-48
530.168	-163
530.426	-127
530.685	16
530.943	-31
531.202	-147
531.461	-139
531.719	-5
531.978	-74
532.236	-143
532.495	-55
532.753	1
533.012	-88
533.271	-168
533.529	-179
533.788	-84
534.046	-153
534.305	-185
534.563	20
534.822	90
535.08	-30
535.338	-114
535.597	-63
535.855	-1
536.114	-77
536.372	-162
536.631	-78
536.889	27
537.147	-27
537.406	-219
537.664	-103
537.923	-43
538.181	-27
538.439	-151
538.698	-30
538.956	-39
539.214	-73
539.473	-103
539.731	-61
539.989	-20
540.248	-64
540.506	-117
540.764	-102
541.022	-6
541.281	18
541.539	-83
541.797	-141
542.055	8
542.314	76
542.572	21
542.83	-97
543.088	26
543.346	-33
543.604	-122
543.863	-24
544.121	97
544.379	18
544.637	-97
544.895	45
545.153	164
545.411	20
545.67	-133
545.928	-75
546.186	78
546.444	129
546.702	43
546.96	95
547.218	178
547.476	127
547.734	81
547.992	174
548.25	281
548.508	214
548.766	219
549.024	272
549.282	350
549.54	417
549.798	482
550.056	538
550.314	701
550.572	735
550.83	727
551.088	940
551.346	1175
551.603	1291
551.861	1295
552.119	1561
552.377	1808
552.635	1849
552.893	1911
553.151	2103
553.409	2410
553.666	2580
553.924	2646
554.182	2799
554.44	3074
554.698	3283
554.955	3239
555.213	3354
555.471	3622
555.729	3665
555.986	3565
556.244	3687
556.502	3918
556.76	3866
557.017	3797
557.275	3790
557.533	3896
557.79	3781
558.048	3516
558.306	3484
558.563	3481
558.821	3234
559.079	3024
559.336	2931
559.594	2853
559.852	2629
560.109	2392
560.367	2351
560.624	2228
560.882	1964
561.14	1788
561.397	1749
561.655	1494
561.912	1363
562.17	1123
562.427	1031
562.685	977
562.942	888
563.2	665
563.457	621
563.715	570
563.972	535
564.23	299
564.487	223
564.745	310
565.002	301
565.26	170
565.517	138
565.774	154
566.032	117
566.289	36
566.547	61
566.804	160
567.061	92
567.319	-54
567.576	43
567.833	169
568.091	200
568.348	20
568.605	37
568.863	69
569.12	33
569.377	-91
569.635	-81
569.892	-33
570.149	-40
570.406	-165
570.664	-134
570.921	-15
571.178	-93
571.435	-69
571.693	-59
571.95	1
572.207	-70
572.464	-84
572.721	-2
572.979	76
573.236	27
573.493	-80
573.75	-73
574.007	49
574.264	-47
574.521	-105
574.779	-89
575.036	-14
575.293	-67
575.55	-138
575.807	-114
576.064	-11
576.321	-47
576.578	-204
576.835	-167
577.092	74
577.349	12
577.606	-211
577.863	-137
578.12	0
578.377	-14
578.634	-228
578.891	-147
579.148	-46
579.405	-107
579.662	-187
579.919	-99
580.176	-73
580.433	-46
580.69	-107
580.947	-112
581.204	-27
581.461	-45
581.717	-142
581.974	17
582.231	44
582.488	-75
582.745	-140
583.002	-129
583.259	1
583.515	-31
583.772	-189
584.029	-143
584.286	18
584.543	-142
584.799	-165
585.056	-94
585.313	-4
585.57	34
585.826	-116
586.083	-36
586.34	123
586.597	-68
586.853	-209
587.11	-179
587.367	16
587.623	76
587.88	-30
588.137	-118
588.393	-2
588.65	-76
588.907	-158
589.163	-106
589.42	-47
589.677	-33
589.933	-153
590.19	-59
590.446	75
590.703	42
590.96	-186
591.216	-203
591.473	-92
591.729	-98
591.986	-92
592.242	-25
592.499	165
592.755	15
593.012	-187
593.268	-111
593.525	-55
593.781	-48
594.038	-139
594.294	-94
594.551	-58
594.807	-134
595.064	-163
595.32	-157
595.576	-39
595.833	7
596.089	-110
596.346	-32
596.602	18
596.858	69
597.115	-98
597.371	-25
597.628	-16
597.884	-70
598.14	-143
598.397	-2
598.653	88
598.909	-35
599.166	-158
599.422	-98
599.678	0
599.934	-33
600.191	-169
600.447	-116
600.703	-70
600.959	-83
601.216	-218
601.472	-183
601.728	-43
601.984	-95
602.241	-196
602.497	-108
602.753	17
603.009	-75
603.265	-171
603.521	-29
603.778	65
604.034	-113
604.29	-187
604.546	-132
604.802	-40
605.058	-94
605.314	-204
605.571	-127
605.827	-78
606.083	-67
606.339	-183
606.595	-73
606.851	14
607.107	43
607.363	-149
607.619	-132
607.875	70
608.131	6
608.387	-230
608.643	-154
608.899	-67
609.155	-62
609.411	-85
609.667	-69
609.923	-57
610.179	-95
610.435	-262
610.691	-185
610.947	-18
611.203	-83
611.459	-130
611.714	-49
611.97	70
612.226	3
612.482	-188
612.738	-86
612.994	123
613.25	-14
613.505	-163
613.761	-117
614.017	-35
614.273	-52
614.529	-114
614.785	-165
615.04	-52
615.296	-41
615.552	-133
615.808	-89
616.063	6
616.319	-20
616.575	-144
616.831	-110
617.086	101
617.342	59
617.598	-63
617.854	2
618.109	55
618.365	-111
618.621	-183
618.876	-76
619.132	40
619.388	-10
619.643	-163
619.899	-59
620.155	10
620.41	8
620.666	-134
620.921	-74
621.177	46
621.433	58
621.688	-47
621.944	-138
622.199	-57
622.455	-43
622.71	-161
622.966	-142
623.221	-116
623.477	-97
623.732	-71
623.988	-157
624.243	-23
624.499	-16
624.754	-190
625.01	-155
625.265	-46
625.521	49
625.776	-77
626.032	-48
626.287	-20
626.543	-72
626.798	-111
627.053	-66
627.309	-14
627.564	-93
627.82	-84
628.075	10
628.33	-30
628.586	-150
628.841	-252
629.096	-119
629.352	-22
629.607	-128
629.862	-158
630.118	-55
630.373	-90
630.628	-36
630.884	-161
631.139	-103
631.394	39
631.649	-41
631.905	-173
632.16	-53
632.415	139
632.67	-56
632.926	-181
633.181	-174
633.436	-38
633.691	-96
633.946	-207
634.202	-177
634.457	-26
634.712	-73
634.967	-169
635.222	-201
635.477	-102
635.733	-93
635.988	-192
636.243	-158
636.498	-24
636.753	-60
637.008	-182
637.263	-92
637.518	-25
637.773	-51
638.028	-95
638.283	-84
638.539	19
638.794	-17
639.049	-140
639.304	-153
639.559	-85
639.814	-105
640.069	-156
640.324	-133
640.579	-15
640.834	-36
641.089	-167
641.344	-90
641.598	121
641.853	14
642.108	-146
642.363	-201
642.618	-32
642.873	-77
643.128	-194
643.383	-122
643.638	-22
643.893	6
644.148	-62
644.402	-137
644.657	-17
644.912	-86
645.167	-113
645.422	-42
645.677	-50
645.931	-11
646.186	4
646.441	-71
646.696	-81
646.951	-66
647.205	-111
647.46	-94
647.715	-70
647.97	79
648.224	189
648.479	-34
648.734	80
648.989	28
649.243	-77
649.498	-110
649.753	-67
650.007	-41
650.262	-104
650.517	-91
650.771	-44
651.026	-103
651.281	-209
651.535	-63
651.79	-40
652.045	-68
652.299	-131
652.554	-130
652.809	-22
653.063	125
653.318	-5
653.572	-110
653.827	47
654.081	-31
654.336	-186
654.591	-160
654.845	-50
655.1	-105
655.354	-149
655.609	-62
655.863	38
656.118	1
656.372	-132
656.627	-113
656.881	-10
657.136	-81
657.39	-173
657.645	-41
657.899	95
658.153	-30
658.408	-127
658.662	-52
658.917	-26
659.171	-126
659.426	-192
659.68	-128
659.934	-8
660.189	-49
660.443	-158
660.697	6
660.952	89
661.206	-60
661.46	-212
661.715	-129
661.969	-20
662.223	-51
662.478	-150
662.732	-90
662.986	-45
663.241	-61
663.495	-185
663.749	-124
664.003	-2
664.258	-55
664.512	-135
664.766	-94
665.02	-27
665.275	7
665.529	-161
665.783	-133
666.037	-49
666.291	-77
666.546	-130
666.8	-91
667.054	-108
667.308	-76
667.562	-217
667.816	-135
668.071	-42
668.325	-143
668.579	-156
668.833	-75
669.087	45
669.341	-47
669.595	-183
669.849	-124
670.103	-81
670.357	-82
670.612	-98
670.866	-130
671.12	-57
671.374	-85
671.628	-102
671.882	-148
672.136	-75
672.39	-66
672.644	-220
672.898	-70
673.152	73
673.406	3
673.66	-102
673.914	-39
674.168	33
674.422	-46
674.675	-158
674.929	-82
675.183	27
675.437	-30
675.691	-86
675.945	-59
676.199	67
676.453	-36
676.707	-160
676.961	-148
677.214	-68
677.468	-58
677.722	-63
677.976	-90
678.23	-24
678.484	-9
678.737	-150
678.991	-109
679.245	-50
679.499	-87
679.753	-166
680.006	-71
680.26	22
680.514	22
680.768	-129
681.021	-55
681.275	-50
681.529	-46
681.783	-98
682.036	-99
682.29	-98
682.544	-61
682.797	-110
683.051	-163
683.305	-95
683.559	-78
683.812	-61
684.066	-69
684.32	-6
684.573	-60
684.827	-75
685.08	-55
685.334	49
685.588	-59
685.841	-165
686.095	-9
686.348	-9
686.602	-17
686.856	-43
687.109	-89
687.363	-51
687.616	-106
687.87	-232
688.123	-150
688.377	-48
688.63	-11
688.884	-34
689.137	54
689.391	73
689.644	-81
689.898	-192
690.151	-177
690.405	-34
690.658	-47
690.912	-110
691.165	-108
691.419	-62
691.672	-2
691.926	-103
692.179	-95
692.432	-43
692.686	-104
692.939	-204
693.193	-161
693.446	16
693.699	9
693.953	-20
694.206	-78
694.459	9
694.713	50
694.966	-119
695.219	-137
695.473	-44
695.726	-118
695.979	-168
696.233	-69
696.486	-20
696.739	-50
696.992	-166
697.246	-33
697.499	30
697.752	-137
698.006	-159
698.259	-55
698.512	-56
698.765	-110
699.018	-151
699.272	-52
699.525	-65
699.778	-131
700.031	-158
700.284	-139
700.538	-23
700.791	-26
701.044	-105
701.297	-85
701.55	-57
701.803	-77
702.056	-189
702.31	-118
702.563	-10
702.816	-94
703.069	-250
703.322	-163
703.575	-35
703.828	-7
704.081	-125
704.334	-143
704.587	-73
704.84	-117
705.093	-137
705.346	-1
705.599	-24
705.853	-15
706.106	20
706.359	265
706.612	-2
706.865	12
707.118	-160
707.37	-111
707.623	13
707.876	-23
708.129	-71
708.382	27
708.635	117
708.888	-55
709.141	-161
709.394	-58
709.647	45
709.9	-83
710.153	-214
710.406	-94
710.658	5
710.911	-66
711.164	-182
711.417	-139
711.67	-71
711.923	-24
712.176	-161
712.428	-116
712.681	-53
712.934	-15
713.187	-112
713.44	-167
713.692	-14
713.945	-88
714.198	-179
714.451	-190
714.704	-50
714.956	-9
715.209	6
715.462	-27
715.715	9
715.967	1
716.22	-165
716.473	-153
716.725	27
716.978	-50
717.231	-63
717.484	-22
717.736	-87
717.989	-141
718.242	-209
718.494	-101
718.747	19
718.999	-66
719.252	-43
719.505	-53
719.757	-41
720.01	-60
720.263	-116
720.515	-106
720.768	7
721.02	-10
721.273	-138
721.525	-173
721.778	-74
722.031	7
722.283	-137
722.536	-129
722.788	-54
723.041	-97
723.293	-175
723.546	-162
723.798	-35
724.051	23
724.303	-46
724.556	-42
724.808	100
725.061	21
725.313	-85
725.566	-77
725.818	-42
726.071	-69
726.323	-207
726.575	-108
726.828	41
727.08	29
727.333	-152
727.585	-127
727.837	-64
728.09	-42
728.342	-181
728.595	-85
728.847	91
729.099	-146
729.352	-159
729.604	-146
729.856	-43
730.109	-75
730.361	-170
730.613	-68
730.866	33
731.118	-104
731.37	-177
731.622	-150
731.875	-83
732.127	-22
732.379	-69
732.631	2
732.884	-3
733.136	-65
733.388	-183
733.64	-123
733.893	30
734.145	-41
734.397	-184
734.649	-175
734.901	-62
735.154	-125
735.406	-195
735.658	-140
735.91	-5
736.162	-66
736.414	-179
736.667	-80
736.919	-28
737.171	-132
737.423	-166
737.675	-107
737.927	9
738.179	-44
738.431	-89
738.684	-155
738.936	-75
739.188	-11
739.44	-200
739.692	-196
739.944	-145
740.196	-113
740.448	-187
740.7	-185
740.952	-111
741.204	-106
741.456	-183
741.708	-114
741.96	-111
742.212	-50
742.464	-58
742.716	-189
742.968	-83
743.22	-138
743.472	-212
743.724	-137
743.976	7
744.228	22
744.48	-216
744.732	-183
744.983	-30
745.235	-43
745.487	-121
745.739	-105
745.991	-115
746.243	-31
746.495	-177
746.747	-169
746.999	-76
747.25	-79
747.502	-106
747.754	-15
748.006	-87
748.258	24
748.51	21
748.761	-132
749.013	-52
749.265	33
749.517	2
749.768	43
750.02	65
750.272	-7
750.524	-172
750.776	-223
751.027	-29
751.279	35
751.531	-188
751.782	-104
752.034	12
752.286	-99
752.538	-213
752.789	-110
753.041	-21
753.293	-53
753.544	-139
753.796	-117
754.048	-7
754.299	-23
754.551	-60
754.803	-122
755.054	-99
755.306	-48
755.558	-148
755.809	-129
756.061	27
756.312	-79
756.564	-104
756.816	-69
757.067	-63
757.319	-96
757.57	-138
757.822	-57
758.073	14
758.325	-33
758.577	-166
758.828	-148
759.08	75
759.331	80
759.583	-138
759.834	-47
760.086	-62
760.337	-95
760.589	-147
760.84	-130
761.092	-57
761.343	-90
761.595	-228
761.846	-78
762.097	-42
762.349	-97
762.6	-238
762.852	-99
763.103	50
763.355	-90
763.606	-177
763.857	-34
764.109	75
764.36	-40
764.612	-122
764.863	-37
765.114	-22
765.366	-137
765.617	-228
765.868	-148
766.12	5
766.371	12
766.622	-191
766.874	-115
767.125	22
767.376	-99
767.628	-169
767.879	-107
768.13	-9
768.381	-29
768.633	-79
768.884	-89
769.135	-5
769.386	-16
769.638	-93
769.889	-88
770.14	-42
770.391	-129
770.643	-180
770.894	-194
771.145	-55
771.396	-122
771.647	-211
771.899	-90
772.15	0
772.401	-55
772.652	-188
772.903	-148
773.154	190
773.406	429
773.657	-124
773.908	-134
774.159	-41
774.41	-21
774.661	-159
774.912	-97
775.163	54
775.414	44
775.666	-195
775.917	-177
776.168	-110
776.419	-98
776.67	-177
776.921	-185
777.172	-95
777.423	-69
777.674	-55
777.925	-57
778.176	-121
778.427	-108
778.678	-168
778.929	-161
779.18	-67
779.431	-136
779.682	-123
779.933	-83
780.184	-64
780.435	-85
780.686	-126
780.937	-87
781.188	-31
781.439	65
781.69	-23
781.941	-82
782.191	-73
782.442	-81
782.693	-161
782.944	-180
783.195	-74
783.446	-42
783.697	-46
783.948	-155
784.199	-101
784.449	-141
784.7	-126
784.951	-102
785.202	36
785.453	-1
785.704	-193
785.954	-199
786.205	-100
786.456	-167
786.707	-242
786.958	-197
787.208	-99
787.459	-132
787.71	-99
787.961	-127
788.211	-76
788.462	-70
788.713	-129
788.964	-144
789.214	-40
789.465	-27
789.716	-69
789.967	-71
790.217	-94
790.468	-129
790.719	-202
790.969	-160
791.22	-93
791.471	-41
791.721	-21
791.972	-117
792.223	-42
792.473	-118
792.724	-142
792.975	-142
793.225	-56
793.476	-92
793.726	-159
793.977	-42
794.228	59
794.478	-57
794.729	-158
794.979	-53
795.23	-9
795.481	-52
795.731	-175
795.982	-116
796.232	-124
796.483	-162
796.733	-204
796.984	-147
797.234	-63
797.485	-50
797.735	-204
797.986	-165
798.236	-39
798.487	-106
798.737	-115
798.988	-36
799.238	23
799.489	-94
799.739	-178
799.99	-102
800.24	-11
800.491	37
800.741	-106
800.991	-171
801.242	-101
801.492	-67
801.743	-130
801.993	110
802.244	307
802.494	-60
802.744	-102
802.995	-71
803.245	-60
803.495	-92
803.746	-153
803.996	-64
804.246	-68
804.497	-55
804.747	-186
804.997	-109
805.248	-91
805.498	-135
805.748	-123
805.999	-199
806.249	-114
806.499	-110
806.75	-216
807	-184
807.25	-78
807.5	-125
807.751	-129
808.001	-61
808.251	-64
808.501	19
808.752	14
809.002	-52
809.252	-56
809.502	-112
809.752	-141
810.003	-171
810.253	-100
810.503	-77
810.753	-59
811.003	-24
811.254	11
811.504	-77
811.754	-107
812.004	-88
812.254	125
812.504	-32
812.754	-138
813.005	-78
813.255	11
813.505	-59
813.755	-147
814.005	-69
814.255	-66
814.505	-113
814.755	-201
815.005	-172
815.255	-60
815.505	-113
815.756	-64
816.006	-51
816.256	-97
816.506	-154
816.756	-216
817.006	-164
817.256	-68
817.506	-68
817.756	-119
818.006	-99
818.256	-49
818.506	-70
818.756	-191
819.006	-153
819.256	-59
819.506	-104
819.756	-164
820.006	-101
820.255	-51
820.505	-59
820.755	-179
821.005	-122
821.255	-10
821.505	-68
821.755	-140
822.005	-51
822.255	18
822.505	-96
822.755	-81
823.004	-184
823.254	-157
823.504	-80
823.754	-66
824.004	-142
824.254	-49
824.504	-49
824.753	-36
825.003	-33
825.253	25
825.503	-95
825.753	-143
826.002	-62
826.252	125
826.502	-80
826.752	-142
827.002	-119
827.251	-36
827.501	-101
827.751	-171
828.001	-123
828.25	0
828.5	-161
828.75	-180
829	-97
829.249	23
829.499	-124
829.749	-145
829.998	-67
830.248	-13
830.498	-137
830.748	-149
830.997	-81
831.247	2
831.497	-7
831.746	-98
831.996	-15
832.246	109
832.495	111
832.745	-153
832.994	-138
833.244	7
833.494	-106
833.743	-194
833.993	-122
834.243	-40
834.492	-61
834.742	-89
834.991	-114
835.241	55
835.49	-92
835.74	-211
835.99	-138
836.239	-20
836.489	7
836.738	-103
836.988	-216
837.237	-105
837.487	31
837.736	-84
837.986	-124
838.235	-48
838.485	-79
838.734	-145
838.984	-46
839.233	-68
839.483	-171
839.732	-189
839.982	-108
840.231	-35
840.481	-28
840.73	-142
840.979	-97
841.229	-81
841.478	-90
841.728	-210
841.977	-219
842.227	-151
842.476	-189
842.725	-208
842.975	-149
843.224	-38
843.474	1
843.723	-129
843.972	-123
844.222	-76
844.471	-27
844.72	-130
844.97	-131
845.219	-29
845.468	-31
845.718	-112
845.967	-82
846.216	-25
846.466	20
846.715	-113
846.964	-111
847.214	-115
847.463	-154
847.712	-115
847.961	-155
848.211	-78
848.46	-84
848.709	-137
848.958	-158
849.208	-89
849.457	-96
849.706	-87
849.955	-110
850.205	-115
850.454	11
850.703	39
850.952	-29
851.201	9
851.451	-50
851.7	-49
851.949	-160
852.198	-74
852.447	-86
852.696	-159
852.946	-113
853.195	-11
853.444	-5
853.693	-188
853.942	-200
854.191	-87
854.44	-52
854.689	-101
854.939	-138
855.188	-160
855.437	-126
855.686	-151
855.935	-115
856.184	-51
856.433	-10
856.682	-78
856.931	-74
857.18	-56
857.429	-141
857.678	-170
857.927	-101
858.176	-75
858.425	-142
858.674	-214
858.924	-101
859.173	-81
859.422	-56
859.671	-188
859.92	-133
860.169	-75
860.417	-33
860.666	-97
860.915	-143
861.164	-103
861.413	-141
861.662	-205
861.911	-151
862.16	-27
862.409	-70
862.658	-204
862.907	-173
863.156	-58
863.405	-57
863.654	-166
863.903	-199
864.151	-106
864.4	-66
864.649	-135
864.898	-86
865.147	-37
865.396	-13
865.645	-137
865.894	-110
866.142	20
866.391	-71
866.64	-194
866.889	-90
867.138	79
867.387	-19
867.635	-141
867.884	-87
868.133	14
868.382	-67
868.631	-191
868.879	-179
869.128	-75
869.377	-70
869.626	-137
869.874	-134
870.123	-27
870.372	-69
870.621	-199
870.869	-156
871.118	-44
871.367	-63
871.616	-179
871.864	-77
872.113	-34
872.362	-54
872.61	-116
872.859	-73
873.108	-14
873.357	-113
873.605	-200
873.854	-164
874.103	-123
874.351	-112
874.6	-125
874.848	-88
875.097	-39
875.346	-39
875.594	-163
875.843	-56
876.092	92
876.34	-37
876.589	-143
876.837	-222
877.086	-140
877.335	-68
877.583	-111
877.832	-70
878.08	59
878.329	-55
878.578	-134
878.826	-115
879.075	-29
879.323	-14
879.572	-115
879.82	10
880.069	-33
880.317	-23
880.566	-142
880.814	-48
881.063	57
881.311	-26
881.56	0
881.808	-98
882.057	-37
882.305	-57
882.554	-38
882.802	-139
883.051	-96
883.299	-70
883.548	-121
883.796	-34
884.045	-32
884.293	-89
884.541	-215
884.79	-228
885.038	-115
885.287	-93
885.535	-71
885.783	-52
886.032	-105
886.28	-139
886.529	-187
886.777	-120
887.025	45
887.274	-51
887.522	-126
887.77	-122
888.019	-99
888.267	-139
888.516	-202
888.764	-165
889.012	-74
889.261	-85
889.509	-151
889.757	-139
890.005	-98
890.254	-149
890.502	-119
890.75	87
890.999	83
891.247	-20
891.495	-53
891.743	-78
891.992	40
892.24	-49
892.488	-158
892.737	-135
892.985	-34
893.233	-63
893.481	-120
893.729	-133
893.978	22
894.226	41
894.474	-113
894.722	-123
894.97	-102
895.219	-126
895.467	-83
895.715	-37
895.963	-81
896.211	-127
896.46	-202
896.708	-90
896.956	5
897.204	91
897.452	-25
897.7	-105
897.948	-34
898.197	-75
898.445	-131
898.693	-117
898.941	-52
899.189	-59
899.437	-107
899.685	-13
899.933	-65
900.181	-62
900.43	-142
900.678	-112
900.926	-47
901.174	-91
901.422	-136
901.67	-114
901.918	-43
902.166	-74
902.414	-206
902.662	-149
902.91	-18
903.158	-46
903.406	-126
903.654	-113
903.902	-63
904.15	-77
904.398	-214
904.646	-107
904.894	-9
905.142	-4
905.39	-61
905.638	-134
905.886	-85
906.134	-100
906.382	-101
906.63	-140
906.878	-71
907.126	-83
907.374	-130
907.622	-127
907.869	-2
908.117	-28
908.365	-120
908.613	-120
908.861	-118
909.109	-158
909.357	-188
909.605	-107
909.853	-20
910.1	-92
910.348	-254
910.596	-205
910.844	-29
911.092	11
911.34	-105
911.588	-90
911.835	-21
912.083	-45
912.331	-61
912.579	-33
912.827	147
913.075	-4
913.322	-138
913.57	-123
913.818	11
914.066	-59
914.313	-127
914.561	-55
914.809	-42
915.057	-98
915.305	-98
915.552	-112
915.8	-2
916.048	-98
916.296	-171
916.543	-57
916.791	28
917.039	-45
917.286	-165
917.534	-142
917.782	-21
918.03	-99
918.277	-194
918.525	-188
918.773	-74
919.02	-85
919.268	-141
919.516	-113
919.763	-118
920.011	-99
920.259	-190
920.506	-91
920.754	4
921.002	-25
921.249	-70
921.497	-110
921.745	-77
921.992	-62
922.24	-204
922.487	-65
922.735	111
922.983	9
923.23	-90
923.478	-142
923.725	-42
923.973	-23
924.221	-61
924.468	-6
924.716	-28
924.963	-68
925.211	-129
925.458	-62
925.706	47
925.953	83
926.201	-98
926.448	-123
926.696	-25
926.944	-69
927.191	-117
927.439	-102
927.686	-62
927.934	-57
928.181	-159
928.429	-155
928.676	-90
928.923	-144
929.171	-187
929.418	-30
929.666	30
929.913	7
930.161	-195
930.408	-153
930.656	-71
930.903	-32
931.151	-152
931.398	-110
931.645	21
931.893	-73
932.14	-118
932.388	-110
932.635	37
932.882	71
933.13	-44
933.377	-104
933.625	-6
933.872	-91
934.119	-160
934.367	-115
934.614	-106
934.861	-124
935.109	-119
935.356	-63
935.603	-25
935.851	-88
936.098	-135
936.345	-34
936.593	-14
936.84	-62
937.087	-189
937.335	-121
937.582	-43
937.829	-29
938.077	-73
938.324	-93
938.571	-15
938.818	-89
939.066	-138
939.313	-161
939.56	-40
939.807	-29
940.055	-156
940.302	-107
940.549	60
940.796	-27
941.044	-86
941.291	-71
941.538	69
941.785	-60
942.033	-103
942.28	-27
942.527	-3
942.774	-22
943.021	-187
943.269	-137
943.516	-14
943.763	-17
944.01	-79
944.257	-28
944.504	41
944.752	-9
944.999	-60
945.246	-124
945.493	-51
945.74	-66
945.987	-135
946.234	-66
946.482	34
946.729	-83
946.976	-142
947.223	-122
947.47	33
947.717	-4
947.964	10
948.211	-41
948.458	13
948.705	-49
948.952	-141
949.2	-69
949.447	55
949.694	35
949.941	-107
950.188	-124
950.435	-94
950.682	-59
950.929	-182
951.176	-129
951.423	40
951.67	-1
951.917	-36
952.164	-42
952.411	16
952.658	74
952.905	-74
953.152	-139
953.399	-24
953.646	-38
953.893	-139
954.14	-95
954.387	-41
954.634	-59
954.881	-123
955.128	-56
955.375	-62
955.622	-40
955.869	-51
956.115	-82
956.362	-3
956.609	-41
956.856	-121
957.103	-103
957.35	9
957.597	-24
957.844	-101
958.091	-71
958.338	17
958.585	-47
958.831	-212
959.078	-138
959.325	6
959.572	-100
959.819	-178
960.066	-191
960.313	-59
960.559	-82
960.806	-207
961.053	-162
961.3	-13
961.547	21
961.794	-182
962.04	-26
962.287	7
962.534	-123
962.781	-137
963.028	-60
963.274	41
963.521	-60
963.768	-138
964.015	-87
964.262	73
964.508	-70
964.755	-178
965.002	-159
965.249	-95
965.495	-133
965.742	-174
965.989	-159
966.236	-43
966.482	-110
966.729	-159
966.976	-189
967.222	-95
967.469	-91
967.716	-162
967.963	-171
968.209	-75
968.456	-100
968.703	-222
968.949	-105
969.196	67
969.443	71
969.689	-167
969.936	-186
970.183	-83
970.429	-133
970.676	-175
970.923	-115
971.169	-57
971.416	-124
971.663	-165
971.909	-104
972.156	-32
972.402	-28
972.649	-110
972.896	-76
973.142	-55
973.389	-31
973.635	-138
973.882	-17
974.129	55
974.375	-90
974.622	-174
974.868	-143
975.115	-65
975.361	-113
975.608	-139
975.855	-25
976.101	15
976.348	-66
976.594	-134
976.841	-62
977.087	-66
977.334	-34
977.58	-176
977.827	-175
978.073	-6
978.32	-37
978.566	-179
978.813	-99
979.059	-56
979.306	-73
979.552	-182
979.799	-101
980.045	-88
980.292	-86
980.538	-164
980.785	-163
981.031	-122
981.278	-140
981.524	-211
981.771	-43
982.017	94
982.263	-9
982.51	-154
982.756	-93
983.003	-11
983.249	-82
983.495	-155
983.742	-159
983.988	-87
984.235	-62
984.481	-162
984.727	-157
984.974	-34
985.22	-31
985.467	-101
985.713	-107
985.959	2
986.206	-18
986.452	-100
986.698	-69
986.945	-69
987.191	-4
987.437	3
987.684	-52
987.93	110
988.176	7
988.423	-164
988.669	-87
988.915	87
989.162	-71
989.408	-169
989.654	-87
989.901	-63
990.147	-78
990.393	-62
990.639	3
990.886	9
991.132	60
991.378	2
991.625	134
991.871	97
992.117	5
992.363	-56
992.61	-49
992.856	64
993.102	-69
993.348	-131
993.594	-111
993.841	-60
994.087	80
994.333	-60
994.579	-82
994.826	-37
995.072	-28
995.318	-215
995.564	-154
995.81	-31
996.057	-68
996.303	-180
996.549	-163
996.795	-59
997.041	-63
997.287	-108
997.534	-108
997.78	-46
998.026	-41
998.272	-157
998.518	-159
998.764	-31
999.01	-10
999.256	-102
999.503	-148
999.749	-130
999.995	-167
1000.241	-185
1000.487	-107
1000.733	-61
1000.979	-97
1001.225	-123
1001.471	-66
1001.718	-6
1001.964	30
1002.21	-148
1002.456	-122
1002.702	39
1002.948	-57
1003.194	-129
1003.44	-155
1003.686	-80
1003.932	-124
1004.178	-158
1004.424	-90
1004.67	45
1004.916	9
1005.162	-109
1005.408	-135
1005.654	13
1005.9	-149
1006.146	-203
1006.392	-137
1006.638	-49
1006.884	-78
1007.13	-145
1007.376	-185
1007.622	-9
1007.868	19
1008.114	-113
1008.36	-62
1008.606	-11
1008.852	-2
1009.098	-74
1009.344	-20
1009.59	-50
1009.836	-173
1010.082	-249
1010.328	-130
1010.574	-35
1010.82	-134
1011.065	-211
1011.311	-207
1011.557	-97
1011.803	-125
1012.049	-178
1012.295	-115
1012.541	-68
1012.787	-85
1013.033	-213
1013.278	-229
1013.524	-75
1013.77	14
1014.016	-107
1014.262	-92
1014.508	14
1014.754	-153
1015	-180
1015.245	-6
1015.491	-1
1015.737	-28
1015.983	-172
1016.229	-196
1016.475	-73
1016.72	66
1016.966	77
1017.212	-46
1017.458	16
1017.704	-60
1017.949	-175
1018.195	-6
1018.441	97
1018.687	38
1018.933	-123
1019.178	-122
1019.424	37
1019.67	59
1019.916	-158
1020.161	-119
1020.407	-50
1020.653	-102
1020.899	-170
1021.144	-98
1021.39	-11
1021.636	-109
1021.882	-198
1022.127	-91
1022.373	63
1022.619	14
1022.865	-90
1023.11	-106
1023.356	17
1023.602	-48
1023.847	-112
1024.093	-66
1024.339	-88
1024.584	-104
1024.83	-130
1025.076	-110
1025.321	29
1025.567	-5
1025.813	-133
1026.058	-58
1026.304	-11
1026.55	-83
1026.795	-96
1027.041	-102
1027.287	-39
1027.532	-15
1027.778	-48
1028.024	-77
1028.269	-25
1028.515	-117
1028.76	-155
1029.006	-87
1029.252	6
1029.497	-65
1029.743	-93
1029.989	-133
1030.234	18
1030.48	98
1030.725	-115
1030.971	-82
1031.216	43
1031.462	-46
1031.708	-173
1031.953	-142
1032.199	-51
1032.444	-46
1032.69	-92
1032.935	-97
1033.181	33
1033.426	-87
1033.672	-241
1033.918	-182
1034.163	-57
1034.409	-78
1034.654	-129
1034.9	-61
1035.145	-1
1035.391	-75
1035.636	-191
1035.882	-108
1036.127	-95
1036.373	-119
1036.618	-206
1036.864	-114
1037.109	17
1037.355	-76
1037.6	-151
1037.845	-103
1038.091	88
1038.336	56
1038.582	58
1038.827	114
1039.073	-15
1039.318	-102
1039.564	-210
1039.809	-147
1040.055	35
1040.3	45
1040.545	-121
1040.791	-121
1041.036	-62
1041.282	-31
1041.527	22
1041.772	-145
1042.018	-71
1042.263	-29
1042.509	-182
1042.754	-142
1042.999	-38
1043.245	-52
1043.49	-221
1043.736	-138
1043.981	-57
1044.226	-31
1044.472	-53
1044.717	-55
1044.962	22
1045.208	-49
1045.453	-267
1045.698	-177
1045.944	25
1046.189	-25
1046.434	-126
1046.68	-97
1046.925	69
1047.17	-89
1047.416	-248
1047.661	-142
1047.906	14
1048.152	-14
1048.397	-108
1048.642	-115
1048.887	61
1049.133	62
1049.378	-113
1049.623	-125
1049.869	1
1050.114	-88
1050.359	-164
1050.604	-85
1050.85	82
1051.095	-61
1051.34	-159
1051.585	-73
1051.831	103
1052.076	-56
1052.321	-251
1052.566	-130
1052.812	54
1053.057	-36
1053.302	-123
1053.547	-29
1053.792	37
1054.038	15
1054.283	-173
1054.528	-70
1054.773	-23
1055.018	-38
1055.264	-135
1055.509	-167
1055.754	-42
1055.999	-114
1056.244	-190
1056.49	-117
1056.735	-29
1056.98	-86
1057.225	-177
1057.47	10
1057.715	-57
1057.96	-138
1058.206	-181
1058.451	-76
1058.696	44
1058.941	-13
1059.186	-182
1059.431	-159
1059.676	51
1059.922	-2
1060.167	84
1060.412	273
1060.657	27
1060.902	-36
1061.147	-211
1061.392	-132
1061.637	3
1061.882	-65
1062.127	-203
1062.373	-201
1062.618	64
1062.863	93
1063.108	-99
1063.353	-158
1063.598	-55
1063.843	-78
1064.088	-150
1064.333	-150
1064.578	-16
1064.823	9
1065.068	-213
1065.313	-143
1065.558	14
1065.803	25
1066.048	-174
1066.293	-168
1066.538	42
1066.783	-24
1067.028	-211
1067.273	-191
1067.518	5
1067.763	-66
1068.008	-225
1068.253	-142
1068.498	17
1068.743	-29
1068.988	-188
1069.233	-173
1069.478	33
1069.723	84
1069.968	-113
1070.213	-86
1070.458	28
1070.703	-62
1070.948	-226
1071.193	-124
1071.438	16
1071.683	53
1071.928	-84
1072.173	-98
1072.418	-28
1072.663	-75
1072.908	-176
1073.152	-123
1073.397	25
1073.642	-65
1073.887	-122
1074.132	-14
1074.377	-22
1074.622	-41
1074.867	-153
1075.112	-99
1075.357	85
1075.601	-61
1075.846	-113
1076.091	-20
1076.336	36
1076.581	-94
1076.826	-201
1077.071	-116
1077.315	145
1077.56	71
1077.805	-152
1078.05	-117
1078.295	-51
1078.54	-89
1078.785	-211
1079.029	-148
1079.274	23
1079.519	-127
1079.764	-213
1080.009	-74
1080.253	1
1080.498	-107
1080.743	-253
1080.988	-105
1081.233	118
1081.478	51
1081.722	-154
1081.967	-33
1082.212	114
1082.457	1
1082.701	-126
1082.946	-103
1083.191	22
1083.436	-98
1083.681	-240
1083.925	-126
1084.17	-30
1084.415	-7
1084.66	-217
1084.904	-111
1085.149	-29
1085.394	-43
1085.639	-221
1085.883	-128
1086.128	116
1086.373	127
1086.617	-92
1086.862	-161
1087.107	-36
1087.352	-87
1087.596	-169
1087.841	-33
1088.086	-4
1088.33	-26
1088.575	-255
1088.82	-122
1089.064	51
1089.309	-98
1089.554	-206
1089.798	-174
1090.043	23
1090.288	-31
1090.533	-215
1090.777	-135
1091.022	18
1091.266	52
1091.511	-129
1091.756	-54
1092	94
1092.245	66
1092.49	-162
1092.734	-115
1092.979	69
1093.224	-51
1093.468	-187
1093.713	-134
1093.957	-3
1094.202	-58
1094.447	-238
1094.691	-111
1094.936	35
1095.181	-23
1095.425	-196
1095.67	-179
1095.914	-12
1096.159	-5
1096.403	-171
1096.648	-73
1096.893	61
1097.137	-86
1097.382	-230
1097.626	-149
1097.871	3
1098.115	-63
1098.36	-212
1098.605	-125
1098.849	-56
1099.094	-113
1099.338	-188
1099.583	-85
1099.827	125
1100.072	22
1100.316	-161
1100.561	-108
1100.805	33
1101.05	-8
1101.294	-204
1101.539	-178
1101.783	-21
1102.028	-15
1102.273	-151
1102.517	-77
1102.761	52
1103.006	-70
1103.25	-275
1103.495	-167
1103.739	43
1103.984	96
1104.228	-104
1104.473	-33
1104.717	33
1104.962	-7
1105.206	-138
1105.451	-151
1105.695	4
1105.94	-15
1106.184	-168
1106.429	-117
1106.673	1
1106.917	61
1107.162	-167
1107.406	-20
1107.651	133
1107.895	-98
1108.14	-210
1108.384	-96
1108.628	118
1108.873	94
1109.117	-150
1109.362	-127
1109.606	-43
1109.85	-47
1110.095	-180
1110.339	-100
1110.584	87
1110.828	31
1111.072	-111
1111.317	-138
1111.561	-30
1111.806	-45
1112.05	-176
1112.294	-86
1112.539	19
1112.783	-10
1113.027	-118
1113.272	-110
1113.516	-23
1113.76	-51
1114.005	-148
1114.249	-86
1114.493	65
1114.738	86
1114.982	-59
1115.226	-98
1115.471	1
1115.715	-14
1115.959	-180
1116.204	-174
1116.448	0
1116.692	-95
1116.937	-171
1117.181	-25
1117.425	-33
1117.67	-83
1117.914	-156
1118.158	-111
1118.402	116
1118.647	41
1118.891	-86
1119.135	-36
1119.38	95
1119.624	8
1119.868	-150
1120.112	-158
1120.357	-51
1120.601	-131
1120.845	-222
1121.089	-138
1121.334	29
